# r[au]  T_bright_linear [K]   Variance [K]   Error [K]
0.000000e+00 2.824052e+01 0.000000e+00 0.000000e+00
6.052017e-02 2.823703e+01 1.361543e-02 1.361543e-02
1.210403e-01 2.822737e+01 2.723734e-02 2.723734e-02
1.815605e-01 2.821158e+01 4.086471e-02 4.086471e-02
2.420807e-01 2.818970e+01 5.449577e-02 5.449577e-02
3.026009e-01 2.816176e+01 6.812845e-02 6.812845e-02
3.631210e-01 2.812772e+01 8.177104e-02 8.177104e-02
4.236412e-01 2.808737e+01 9.545987e-02 9.545987e-02
4.841614e-01 2.804100e+01 1.091715e-01 1.091715e-01
5.446816e-01 2.798876e+01 1.228934e-01 1.228934e-01
6.052017e-01 2.793076e+01 1.366156e-01 1.366156e-01
6.657219e-01 2.786713e+01 1.503279e-01 1.503279e-01
7.262421e-01 2.779781e+01 1.640575e-01 1.580491e-01
7.867623e-01 2.772292e+01 1.777990e-01 1.645676e-01
8.472824e-01 2.764270e+01 1.915180e-01 1.708174e-01
9.078026e-01 2.755731e+01 2.051967e-01 1.768118e-01
9.683228e-01 2.746690e+01 2.188203e-01 1.825637e-01
1.028843e+00 2.737159e+01 2.323796e-01 1.880876e-01
1.089363e+00 2.727139e+01 2.458984e-01 1.934222e-01
1.149883e+00 2.716657e+01 2.593322e-01 1.985484e-01
1.210403e+00 2.705732e+01 2.726514e-01 2.034602e-01
1.270924e+00 2.694381e+01 2.858344e-01 2.081572e-01
1.331444e+00 2.682622e+01 2.988621e-01 2.126406e-01
1.391964e+00 2.670465e+01 3.117335e-01 2.169233e-01
1.452484e+00 2.657924e+01 3.244377e-01 2.210102e-01
1.513004e+00 2.645021e+01 3.369382e-01 2.248884e-01
1.573525e+00 2.631774e+01 3.492119e-01 2.285541e-01
1.634045e+00 2.618198e+01 3.612394e-01 2.320064e-01
1.694565e+00 2.604310e+01 3.730042e-01 2.352455e-01
1.755085e+00 2.590120e+01 3.844996e-01 2.382778e-01
1.815605e+00 2.575645e+01 3.956989e-01 2.410965e-01
1.876125e+00 2.560904e+01 4.065812e-01 2.436987e-01
1.936646e+00 2.545909e+01 4.171306e-01 2.460842e-01
1.997166e+00 2.530675e+01 4.273336e-01 2.482543e-01
2.057686e+00 2.515211e+01 4.371775e-01 2.502102e-01
2.118206e+00 2.499528e+01 4.466462e-01 2.519511e-01
2.178726e+00 2.483639e+01 4.557244e-01 2.534765e-01
2.239246e+00 2.467556e+01 4.643983e-01 2.547865e-01
2.299767e+00 2.451290e+01 4.726564e-01 2.558824e-01
2.360287e+00 2.434848e+01 4.804893e-01 2.567664e-01
2.420807e+00 2.418236e+01 4.878813e-01 2.574369e-01
2.481327e+00 2.401461e+01 4.948241e-01 2.578966e-01
2.541847e+00 2.384530e+01 5.013131e-01 2.581494e-01
2.602367e+00 2.367448e+01 5.073423e-01 2.581984e-01
2.662888e+00 2.350220e+01 5.129052e-01 2.580462e-01
2.723408e+00 2.332849e+01 5.179924e-01 2.576937e-01
2.783928e+00 2.315337e+01 5.225901e-01 2.571396e-01
2.844448e+00 2.297684e+01 5.267038e-01 2.563918e-01
2.904968e+00 2.279893e+01 5.303376e-01 2.554574e-01
2.965488e+00 2.261963e+01 5.334958e-01 2.543429e-01
3.026009e+00 2.243895e+01 5.361827e-01 2.530547e-01
3.086529e+00 2.225685e+01 5.383963e-01 2.515960e-01
3.147049e+00 2.207330e+01 5.401440e-01 2.499738e-01
3.207569e+00 2.188829e+01 5.414445e-01 2.482006e-01
3.268089e+00 2.170180e+01 5.423183e-01 2.462884e-01
3.328610e+00 2.151380e+01 5.427885e-01 2.442508e-01
3.389130e+00 2.132424e+01 5.428831e-01 2.421023e-01
3.449650e+00 2.113304e+01 5.426320e-01 2.398582e-01
3.510170e+00 2.094017e+01 5.420795e-01 2.375394e-01
3.570690e+00 2.074560e+01 5.412733e-01 2.351675e-01
3.631210e+00 2.054929e+01 5.402672e-01 2.327661e-01
3.691731e+00 2.035120e+01 5.391229e-01 2.303613e-01
3.752251e+00 2.015125e+01 5.379150e-01 2.279841e-01
3.812771e+00 1.994939e+01 5.367321e-01 2.256701e-01
3.873291e+00 1.974561e+01 5.356650e-01 2.234550e-01
3.933811e+00 1.953985e+01 5.348104e-01 2.213757e-01
3.994331e+00 1.933211e+01 5.342752e-01 2.194723e-01
4.054852e+00 1.912235e+01 5.341739e-01 2.177870e-01
4.115372e+00 1.891049e+01 5.346558e-01 2.163747e-01
4.175892e+00 1.869654e+01 5.358459e-01 2.152792e-01
4.236412e+00 1.848052e+01 5.378701e-01 2.145434e-01
4.296932e+00 1.826241e+01 5.408564e-01 2.142099e-01
4.357452e+00 1.804225e+01 5.449319e-01 2.143200e-01
4.417973e+00 1.782002e+01 5.502327e-01 2.149174e-01
4.478493e+00 1.759571e+01 5.569104e-01 2.160510e-01
4.539013e+00 1.736938e+01 5.650467e-01 2.177411e-01
4.599533e+00 1.714108e+01 5.747219e-01 2.200076e-01
4.660053e+00 1.691089e+01 5.859976e-01 2.228626e-01
4.720574e+00 1.667887e+01 5.989161e-01 2.263109e-01
4.781094e+00 1.644505e+01 6.135445e-01 2.303665e-01
4.841614e+00 1.620953e+01 6.298909e-01 2.350212e-01
4.902134e+00 1.597242e+01 6.479270e-01 2.402538e-01
4.962654e+00 1.573383e+01 6.676209e-01 2.460423e-01
5.023174e+00 1.549388e+01 6.889239e-01 2.523590e-01
5.083695e+00 1.525270e+01 7.117779e-01 2.591741e-01
5.144215e+00 1.501041e+01 7.361320e-01 2.664606e-01
5.204735e+00 1.476717e+01 7.618801e-01 2.741726e-01
5.265255e+00 1.452315e+01 7.889237e-01 2.822683e-01
5.325775e+00 1.427852e+01 8.171682e-01 2.907079e-01
5.386295e+00 1.403346e+01 8.465169e-01 2.994521e-01
5.446816e+00 1.378813e+01 8.768730e-01 3.084623e-01
5.507336e+00 1.354273e+01 9.081188e-01 3.176938e-01
5.567856e+00 1.329749e+01 9.401372e-01 3.271026e-01
5.628376e+00 1.305260e+01 9.728185e-01 3.366488e-01
5.688896e+00 1.280828e+01 1.006057e+00 3.462944e-01
5.749416e+00 1.256475e+01 1.039750e+00 3.560030e-01
5.809937e+00 1.232223e+01 1.073765e+00 3.657299e-01
5.870457e+00 1.208096e+01 1.108000e+00 3.754402e-01
5.930977e+00 1.184116e+01 1.142354e+00 3.851008e-01
5.991497e+00 1.160306e+01 1.176730e+00 3.946808e-01
6.052017e+00 1.136690e+01 1.211031e+00 4.041496e-01
6.112538e+00 1.113292e+01 1.245138e+00 4.134696e-01
6.173058e+00 1.090138e+01 1.278913e+00 4.225980e-01
6.233578e+00 1.067250e+01 1.312287e+00 4.315160e-01
6.294098e+00 1.044651e+01 1.345175e+00 4.401989e-01
6.354618e+00 1.022363e+01 1.377497e+00 4.486242e-01
6.415138e+00 1.000408e+01 1.409165e+00 4.567678e-01
6.475659e+00 9.788141e+00 1.440017e+00 4.645822e-01
6.536179e+00 9.576029e+00 1.469997e+00 4.720536e-01
6.596699e+00 9.367950e+00 1.499034e+00 4.791650e-01
6.657219e+00 9.164083e+00 1.527067e+00 4.859016e-01
6.717739e+00 8.964644e+00 1.554022e+00 4.922461e-01
6.778259e+00 8.769845e+00 1.579811e+00 4.981759e-01
6.838780e+00 8.579937e+00 1.604284e+00 5.036499e-01
6.899300e+00 8.395067e+00 1.627434e+00 5.086719e-01
6.959820e+00 8.215399e+00 1.649226e+00 5.132371e-01
7.020340e+00 8.041078e+00 1.669614e+00 5.173372e-01
7.080860e+00 7.872267e+00 1.688552e+00 5.209645e-01
7.141380e+00 7.709198e+00 1.705896e+00 5.240808e-01
7.201901e+00 7.552006e+00 1.721603e+00 5.266792e-01
7.262421e+00 7.400804e+00 1.735683e+00 5.287697e-01
7.322941e+00 7.255690e+00 1.748123e+00 5.303541e-01
7.383461e+00 7.116754e+00 1.758924e+00 5.314394e-01
7.443981e+00 6.984138e+00 1.768034e+00 5.320161e-01
7.504502e+00 6.858026e+00 1.775333e+00 5.320538e-01
7.565022e+00 6.738454e+00 1.780870e+00 5.315743e-01
7.625542e+00 6.625490e+00 1.784648e+00 5.305838e-01
7.686062e+00 6.519164e+00 1.786720e+00 5.291044e-01
7.746582e+00 6.419545e+00 1.787077e+00 5.271389e-01
7.807102e+00 6.326733e+00 1.785673e+00 5.246791e-01
7.867623e+00 6.240801e+00 1.782500e+00 5.217284e-01
7.928143e+00 6.161751e+00 1.777617e+00 5.183094e-01
7.988663e+00 6.089555e+00 1.771098e+00 5.144490e-01
8.049183e+00 6.024251e+00 1.762973e+00 5.101602e-01
8.109703e+00 5.965830e+00 1.753290e+00 5.054615e-01
8.170223e+00 5.914389e+00 1.741997e+00 5.003424e-01
8.230744e+00 5.869879e+00 1.729182e+00 4.948323e-01
8.291264e+00 5.832240e+00 1.714957e+00 4.889670e-01
8.351784e+00 5.801440e+00 1.699382e+00 4.827676e-01
8.412304e+00 5.777428e+00 1.682552e+00 4.762641e-01
8.472824e+00 5.760211e+00 1.664490e+00 4.694656e-01
8.533344e+00 5.749789e+00 1.645224e+00 4.623834e-01
8.593865e+00 5.746052e+00 1.624897e+00 4.550597e-01
8.654385e+00 5.748923e+00 1.603613e+00 4.475260e-01
8.714905e+00 5.758298e+00 1.581499e+00 4.398194e-01
8.775425e+00 5.774126e+00 1.558630e+00 4.319621e-01
8.835945e+00 5.796372e+00 1.535057e+00 4.239697e-01
8.896465e+00 5.824939e+00 1.510900e+00 4.158758e-01
8.956986e+00 5.859701e+00 1.486299e+00 4.077199e-01
9.017506e+00 5.900527e+00 1.461392e+00 3.995401e-01
9.078026e+00 5.947324e+00 1.436284e+00 3.913644e-01
9.138546e+00 5.999964e+00 1.411102e+00 3.832276e-01
9.199066e+00 6.058402e+00 1.385910e+00 3.751456e-01
9.259587e+00 6.122444e+00 1.360886e+00 3.671663e-01
9.320107e+00 6.191955e+00 1.336162e+00 3.593233e-01
9.380627e+00 6.266792e+00 1.311883e+00 3.516544e-01
9.441147e+00 6.346815e+00 1.288175e+00 3.441909e-01
9.501667e+00 6.431902e+00 1.265139e+00 3.369576e-01
9.562187e+00 6.521886e+00 1.242912e+00 3.299883e-01
9.622708e+00 6.616592e+00 1.221631e+00 3.233167e-01
9.683228e+00 6.715826e+00 1.201441e+00 3.169779e-01
9.743748e+00 6.819450e+00 1.182449e+00 3.109969e-01
9.804268e+00 6.927295e+00 1.164779e+00 3.054025e-01
9.864788e+00 7.039206e+00 1.148515e+00 3.002130e-01
9.925308e+00 7.154957e+00 1.133771e+00 2.954542e-01
9.985829e+00 7.274357e+00 1.120635e+00 2.911447e-01
1.004635e+01 7.397216e+00 1.109183e+00 2.873001e-01
1.010687e+01 7.523350e+00 1.099473e+00 2.839311e-01
1.016739e+01 7.652569e+00 1.091549e+00 2.810446e-01
1.022791e+01 7.784662e+00 1.085448e+00 2.786457e-01
1.028843e+01 7.919420e+00 1.081184e+00 2.767335e-01
1.034895e+01 8.056645e+00 1.078748e+00 2.753016e-01
1.040947e+01 8.196125e+00 1.078127e+00 2.743420e-01
1.046999e+01 8.337642e+00 1.079288e+00 2.738426e-01
1.053051e+01 8.480994e+00 1.082177e+00 2.737855e-01
1.059103e+01 8.625962e+00 1.086730e+00 2.741507e-01
1.065155e+01 8.772336e+00 1.092872e+00 2.749159e-01
1.071207e+01 8.919896e+00 1.100524e+00 2.760576e-01
1.077259e+01 9.068429e+00 1.109595e+00 2.775499e-01
1.083311e+01 9.217726e+00 1.119982e+00 2.793644e-01
1.089363e+01 9.367567e+00 1.131574e+00 2.814709e-01
1.095415e+01 9.517741e+00 1.144271e+00 2.838418e-01
1.101467e+01 9.668039e+00 1.157967e+00 2.864489e-01
1.107519e+01 9.818256e+00 1.172554e+00 2.892637e-01
1.113571e+01 9.968191e+00 1.187925e+00 2.922583e-01
1.119623e+01 1.011762e+01 1.203965e+00 2.954028e-01
1.125675e+01 1.026635e+01 1.220569e+00 2.986707e-01
1.131727e+01 1.041418e+01 1.237643e+00 3.020378e-01
1.137779e+01 1.056094e+01 1.255092e+00 3.054804e-01
1.143831e+01 1.070642e+01 1.272818e+00 3.089741e-01
1.149883e+01 1.085046e+01 1.290736e+00 3.124981e-01
1.155935e+01 1.099282e+01 1.308731e+00 3.160242e-01
1.161987e+01 1.113337e+01 1.326730e+00 3.195351e-01
1.168039e+01 1.127193e+01 1.344657e+00 3.230126e-01
1.174091e+01 1.140835e+01 1.362443e+00 3.264406e-01
1.180143e+01 1.154248e+01 1.380005e+00 3.297995e-01
1.186195e+01 1.167413e+01 1.397259e+00 3.330700e-01
1.192247e+01 1.180316e+01 1.414125e+00 3.362338e-01
1.198299e+01 1.192945e+01 1.430554e+00 3.392801e-01
1.204351e+01 1.205285e+01 1.446475e+00 3.421930e-01
1.210403e+01 1.217326e+01 1.461838e+00 3.449618e-01
1.216455e+01 1.229056e+01 1.476582e+00 3.475731e-01
1.222508e+01 1.240460e+01 1.490625e+00 3.500092e-01
1.228560e+01 1.251528e+01 1.503916e+00 3.522591e-01
1.234612e+01 1.262252e+01 1.516415e+00 3.543152e-01
1.240664e+01 1.272626e+01 1.528088e+00 3.561707e-01
1.246716e+01 1.282639e+01 1.538880e+00 3.578143e-01
1.252768e+01 1.292282e+01 1.548730e+00 3.592339e-01
1.258820e+01 1.301547e+01 1.557598e+00 3.604212e-01
1.264872e+01 1.310431e+01 1.565470e+00 3.613752e-01
1.270924e+01 1.318928e+01 1.572290e+00 3.620842e-01
1.276976e+01 1.327035e+01 1.578048e+00 3.625481e-01
1.283028e+01 1.334747e+01 1.582726e+00 3.627642e-01
1.289080e+01 1.342059e+01 1.586279e+00 3.627240e-01
1.295132e+01 1.348966e+01 1.588670e+00 3.624211e-01
1.301184e+01 1.355471e+01 1.589926e+00 3.618632e-01
1.307236e+01 1.361573e+01 1.590037e+00 3.610497e-01
1.313288e+01 1.367271e+01 1.588974e+00 3.599761e-01
1.319340e+01 1.372564e+01 1.586747e+00 3.586460e-01
1.325392e+01 1.377451e+01 1.583364e+00 3.570634e-01
1.331444e+01 1.381935e+01 1.578812e+00 3.552268e-01
1.337496e+01 1.386019e+01 1.573116e+00 3.531436e-01
1.343548e+01 1.389706e+01 1.566299e+00 3.508204e-01
1.349600e+01 1.393002e+01 1.558400e+00 3.482676e-01
1.355652e+01 1.395904e+01 1.549390e+00 3.454803e-01
1.361704e+01 1.398418e+01 1.539324e+00 3.424723e-01
1.367756e+01 1.400552e+01 1.528244e+00 3.392541e-01
1.373808e+01 1.402312e+01 1.516181e+00 3.358341e-01
1.379860e+01 1.403701e+01 1.503152e+00 3.322172e-01
1.385912e+01 1.404729e+01 1.489237e+00 3.284225e-01
1.391964e+01 1.405399e+01 1.474457e+00 3.244553e-01
1.398016e+01 1.405718e+01 1.458847e+00 3.203248e-01
1.404068e+01 1.405697e+01 1.442476e+00 3.160467e-01
1.410120e+01 1.405346e+01 1.425410e+00 3.116367e-01
1.416172e+01 1.404670e+01 1.407659e+00 3.070974e-01
1.422224e+01 1.403679e+01 1.389309e+00 3.024485e-01
1.428276e+01 1.402382e+01 1.370410e+00 2.977017e-01
1.434328e+01 1.400788e+01 1.351019e+00 2.928694e-01
1.440380e+01 1.398910e+01 1.331177e+00 2.879613e-01
1.446432e+01 1.396756e+01 1.310961e+00 2.829942e-01
1.452484e+01 1.394338e+01 1.290416e+00 2.779783e-01
1.458536e+01 1.391666e+01 1.269591e+00 2.729243e-01
1.464588e+01 1.388750e+01 1.248540e+00 2.678438e-01
1.470640e+01 1.385603e+01 1.227334e+00 2.627521e-01
1.476692e+01 1.382236e+01 1.205991e+00 2.576533e-01
1.482744e+01 1.378661e+01 1.184572e+00 2.525602e-01
1.488796e+01 1.374890e+01 1.163127e+00 2.474836e-01
1.494848e+01 1.370933e+01 1.141691e+00 2.424303e-01
1.500900e+01 1.366802e+01 1.120296e+00 2.374070e-01
1.506952e+01 1.362511e+01 1.098989e+00 2.324236e-01
1.513004e+01 1.358070e+01 1.077790e+00 2.274840e-01
1.519056e+01 1.353492e+01 1.056726e+00 2.225934e-01
1.525108e+01 1.348787e+01 1.035826e+00 2.177575e-01
1.531160e+01 1.343969e+01 1.015114e+00 2.129811e-01
1.537212e+01 1.339048e+01 9.945920e-01 2.082643e-01
1.543264e+01 1.334036e+01 9.742839e-01 2.036114e-01
1.549316e+01 1.328944e+01 9.541992e-01 1.990241e-01
1.555368e+01 1.323782e+01 9.343381e-01 1.945021e-01
1.561420e+01 1.318563e+01 9.147059e-01 1.900458e-01
1.567472e+01 1.313297e+01 8.953090e-01 1.856563e-01
1.573525e+01 1.307993e+01 8.761415e-01 1.813319e-01
1.579577e+01 1.302661e+01 8.572032e-01 1.770721e-01
1.585629e+01 1.297310e+01 8.384932e-01 1.728764e-01
1.591681e+01 1.291951e+01 8.200038e-01 1.687426e-01
1.597733e+01 1.286593e+01 8.017273e-01 1.646688e-01
1.603785e+01 1.281242e+01 7.836647e-01 1.606549e-01
1.609837e+01 1.275908e+01 7.658115e-01 1.566996e-01
1.615889e+01 1.270597e+01 7.481653e-01 1.528019e-01
1.621941e+01 1.265317e+01 7.307266e-01 1.489616e-01
1.627993e+01 1.260075e+01 7.134917e-01 1.451776e-01
1.634045e+01 1.254876e+01 6.964682e-01 1.414510e-01
1.640097e+01 1.249726e+01 6.796612e-01 1.377826e-01
1.646149e+01 1.244629e+01 6.630817e-01 1.341743e-01
1.652201e+01 1.239591e+01 6.467435e-01 1.306284e-01
1.658253e+01 1.234615e+01 6.306588e-01 1.271469e-01
1.664305e+01 1.229706e+01 6.148502e-01 1.237342e-01
1.670357e+01 1.224866e+01 5.993386e-01 1.203939e-01
1.676409e+01 1.220097e+01 5.841573e-01 1.171323e-01
1.682461e+01 1.215401e+01 5.693342e-01 1.139545e-01
1.688513e+01 1.210779e+01 5.549045e-01 1.108671e-01
1.694565e+01 1.206234e+01 5.409029e-01 1.078765e-01
1.700617e+01 1.201766e+01 5.273711e-01 1.049905e-01
1.706669e+01 1.197374e+01 5.143562e-01 1.022177e-01
1.712721e+01 1.193057e+01 5.019011e-01 9.956614e-02
1.718773e+01 1.188816e+01 4.900528e-01 9.704439e-02
1.724825e+01 1.184648e+01 4.788578e-01 9.466094e-02
1.730877e+01 1.180554e+01 4.683593e-01 9.242359e-02
1.736929e+01 1.176529e+01 4.586056e-01 9.034105e-02
1.742981e+01 1.172572e+01 4.496391e-01 8.842081e-02
1.749033e+01 1.168681e+01 4.414952e-01 8.666899e-02
1.755085e+01 1.164852e+01 4.342094e-01 8.509164e-02
1.761137e+01 1.161081e+01 4.278072e-01 8.369284e-02
1.767189e+01 1.157367e+01 4.223060e-01 8.247505e-02
1.773241e+01 1.153704e+01 4.177186e-01 8.143979e-02
1.779293e+01 1.150089e+01 4.140520e-01 8.058754e-02
1.785345e+01 1.146518e+01 4.112912e-01 7.991442e-02
1.791397e+01 1.142986e+01 4.094263e-01 7.941757e-02
1.797449e+01 1.139489e+01 4.084324e-01 7.909128e-02
1.803501e+01 1.136023e+01 4.082746e-01 7.892797e-02
1.809553e+01 1.132583e+01 4.089119e-01 7.891886e-02
1.815605e+01 1.129165e+01 4.103046e-01 7.905557e-02
1.821657e+01 1.125763e+01 4.123970e-01 7.932662e-02
1.827709e+01 1.122374e+01 4.151357e-01 7.972110e-02
1.833761e+01 1.118992e+01 4.184664e-01 8.022801e-02
1.839813e+01 1.115612e+01 4.223301e-01 8.083546e-02
1.845865e+01 1.112232e+01 4.266670e-01 8.153157e-02
1.851917e+01 1.108844e+01 4.314255e-01 8.230606e-02
1.857969e+01 1.105447e+01 4.365486e-01 8.314767e-02
1.864021e+01 1.102034e+01 4.419814e-01 8.404566e-02
1.870073e+01 1.098602e+01 4.476773e-01 8.499092e-02
1.876125e+01 1.095146e+01 4.535912e-01 8.597465e-02
1.882177e+01 1.091663e+01 4.596799e-01 8.698854e-02
1.888229e+01 1.088149e+01 4.659061e-01 8.802535e-02
1.894281e+01 1.084600e+01 4.722328e-01 8.907805e-02
1.900333e+01 1.081013e+01 4.786260e-01 9.014012e-02
1.906385e+01 1.077384e+01 4.850587e-01 9.120649e-02
1.912437e+01 1.073710e+01 4.915079e-01 9.227278e-02
1.918489e+01 1.069990e+01 4.979540e-01 9.333537e-02
1.924542e+01 1.066220e+01 5.043793e-01 9.439095e-02
1.930594e+01 1.062396e+01 5.107664e-01 9.543633e-02
1.936646e+01 1.058518e+01 5.171063e-01 9.646983e-02
1.942698e+01 1.054582e+01 5.233883e-01 9.748958e-02
1.948750e+01 1.050588e+01 5.296081e-01 9.849482e-02
1.954802e+01 1.046533e+01 5.357638e-01 9.948528e-02
1.960854e+01 1.042416e+01 5.418529e-01 1.004606e-01
1.966906e+01 1.038237e+01 5.478729e-01 1.014203e-01
1.972958e+01 1.033993e+01 5.538351e-01 1.023666e-01
1.979010e+01 1.029687e+01 5.597406e-01 1.032998e-01
1.985062e+01 1.025316e+01 5.655966e-01 1.042213e-01
1.991114e+01 1.020882e+01 5.714131e-01 1.051330e-01
1.997166e+01 1.016384e+01 5.771975e-01 1.060362e-01
2.003218e+01 1.011822e+01 5.829556e-01 1.069321e-01
2.009270e+01 1.007197e+01 5.887021e-01 1.078234e-01
2.015322e+01 1.002512e+01 5.944438e-01 1.087115e-01
2.021374e+01 9.977681e+00 6.001899e-01 1.095979e-01
2.027426e+01 9.929663e+00 6.059512e-01 1.104847e-01
2.033478e+01 9.881085e+00 6.117335e-01 1.113728e-01
2.039530e+01 9.831976e+00 6.175410e-01 1.122632e-01
2.045582e+01 9.782363e+00 6.233795e-01 1.131569e-01
2.051634e+01 9.732281e+00 6.292514e-01 1.140541e-01
2.057686e+01 9.681766e+00 6.351576e-01 1.149552e-01
2.063738e+01 9.630848e+00 6.410954e-01 1.158596e-01
2.069790e+01 9.579569e+00 6.470602e-01 1.167665e-01
2.075842e+01 9.527975e+00 6.530452e-01 1.176746e-01
2.081894e+01 9.476113e+00 6.590381e-01 1.185818e-01
2.087946e+01 9.424030e+00 6.650262e-01 1.194857e-01
2.093998e+01 9.371782e+00 6.710013e-01 1.203849e-01
2.100050e+01 9.319424e+00 6.769368e-01 1.212747e-01
2.106102e+01 9.267016e+00 6.828201e-01 1.221528e-01
2.112154e+01 9.214617e+00 6.886273e-01 1.230150e-01
2.118206e+01 9.162293e+00 6.943333e-01 1.238570e-01
2.124258e+01 9.110108e+00 6.999121e-01 1.246742e-01
2.130310e+01 9.058128e+00 7.053466e-01 1.254637e-01
2.136362e+01 9.006433e+00 7.105904e-01 1.262172e-01
2.142414e+01 8.955088e+00 7.156285e-01 1.269325e-01
2.148466e+01 8.904163e+00 7.204343e-01 1.276048e-01
2.154518e+01 8.853736e+00 7.249708e-01 1.282278e-01
2.160570e+01 8.803879e+00 7.292141e-01 1.287976e-01
2.166622e+01 8.754681e+00 7.331404e-01 1.293101e-01
2.172674e+01 8.706224e+00 7.367035e-01 1.297574e-01
2.178726e+01 8.658575e+00 7.398894e-01 1.301374e-01
2.184778e+01 8.611804e+00 7.426868e-01 1.304484e-01
2.190830e+01 8.565997e+00 7.450486e-01 1.306824e-01
2.196882e+01 8.521224e+00 7.469687e-01 1.308386e-01
2.202934e+01 8.477569e+00 7.484214e-01 1.309128e-01
2.208986e+01 8.435106e+00 7.493804e-01 1.309009e-01
2.215038e+01 8.393914e+00 7.498327e-01 1.308008e-01
2.221090e+01 8.354046e+00 7.497895e-01 1.306150e-01
2.227142e+01 8.315586e+00 7.492050e-01 1.303357e-01
2.233194e+01 8.278593e+00 7.480886e-01 1.299650e-01
2.239246e+01 8.243133e+00 7.464277e-01 1.295011e-01
2.245298e+01 8.209261e+00 7.442171e-01 1.289435e-01
2.251350e+01 8.177032e+00 7.414537e-01 1.282919e-01
2.257402e+01 8.146478e+00 7.381635e-01 1.275513e-01
2.263454e+01 8.117685e+00 7.343131e-01 1.267162e-01
2.269507e+01 8.090690e+00 7.299218e-01 1.257904e-01
2.275559e+01 8.065522e+00 7.249960e-01 1.247752e-01
2.281611e+01 8.042215e+00 7.195421e-01 1.236722e-01
2.287663e+01 8.020785e+00 7.135842e-01 1.224859e-01
2.293715e+01 8.001249e+00 7.071484e-01 1.212209e-01
2.299767e+01 7.983652e+00 7.002194e-01 1.198751e-01
2.305819e+01 7.968004e+00 6.928259e-01 1.184536e-01
2.311871e+01 7.954314e+00 6.850012e-01 1.169624e-01
