# r[au]  T_bright_linear [K]   Variance [K]   Error [K]
0.000000e+00 4.260428e+00 0.000000e+00 0.000000e+00
8.302768e-02 4.261923e+00 7.291820e-03 7.291820e-03
1.660554e-01 4.264567e+00 1.467418e-02 1.467418e-02
2.490830e-01 4.268353e+00 2.216258e-02 2.216258e-02
3.321107e-01 4.273272e+00 2.977167e-02 2.977167e-02
4.151384e-01 4.279314e+00 3.751527e-02 3.751527e-02
4.981661e-01 4.286470e+00 4.540630e-02 4.540630e-02
5.811937e-01 4.294730e+00 5.345729e-02 5.345729e-02
6.642214e-01 4.304080e+00 6.168143e-02 6.168143e-02
7.472491e-01 4.314508e+00 7.009224e-02 7.009224e-02
8.302768e-01 4.325995e+00 7.870285e-02 7.870285e-02
9.133044e-01 4.338526e+00 8.752586e-02 8.752586e-02
9.963321e-01 4.352083e+00 9.657327e-02 9.303642e-02
1.079360e+00 4.366649e+00 1.058567e-01 9.797907e-02
1.162387e+00 4.382202e+00 1.153882e-01 1.029163e-01
1.245415e+00 4.398720e+00 1.251801e-01 1.078639e-01
1.328443e+00 4.416180e+00 1.352445e-01 1.128356e-01
1.411470e+00 4.434556e+00 1.455930e-01 1.178427e-01
1.494498e+00 4.453823e+00 1.562368e-01 1.228949e-01
1.577526e+00 4.473955e+00 1.671864e-01 1.280002e-01
1.660554e+00 4.494922e+00 1.784515e-01 1.331656e-01
1.743581e+00 4.516694e+00 1.900413e-01 1.383965e-01
1.826609e+00 4.539240e+00 2.019631e-01 1.436969e-01
1.909637e+00 4.562526e+00 2.142249e-01 1.490709e-01
1.992664e+00 4.586518e+00 2.268342e-01 1.545217e-01
2.075692e+00 4.611181e+00 2.397975e-01 1.600521e-01
2.158720e+00 4.636477e+00 2.531192e-01 1.656629e-01
2.241747e+00 4.662367e+00 2.668021e-01 1.713540e-01
2.324775e+00 4.688812e+00 2.808474e-01 1.771243e-01
2.407803e+00 4.715771e+00 2.952554e-01 1.829724e-01
2.490830e+00 4.743201e+00 3.100255e-01 1.888963e-01
2.573858e+00 4.771062e+00 3.251559e-01 1.948936e-01
2.656886e+00 4.799310e+00 3.406426e-01 2.009605e-01
2.739913e+00 4.827898e+00 3.564787e-01 2.070920e-01
2.822941e+00 4.856783e+00 3.726558e-01 2.132825e-01
2.905969e+00 4.885916e+00 3.891643e-01 2.195258e-01
2.988996e+00 4.915252e+00 4.059931e-01 2.258157e-01
3.072024e+00 4.944744e+00 4.231304e-01 2.321454e-01
3.155052e+00 4.974343e+00 4.405617e-01 2.385073e-01
3.238079e+00 5.004001e+00 4.582701e-01 2.448927e-01
3.321107e+00 5.033667e+00 4.762370e-01 2.512927e-01
3.404135e+00 5.063292e+00 4.944422e-01 2.576976e-01
3.487162e+00 5.092826e+00 5.128646e-01 2.640978e-01
3.570190e+00 5.122218e+00 5.314823e-01 2.704838e-01
3.653218e+00 5.151418e+00 5.502715e-01 2.768454e-01
3.736245e+00 5.180375e+00 5.692063e-01 2.831719e-01
3.819273e+00 5.209035e+00 5.882590e-01 2.894519e-01
3.902301e+00 5.237349e+00 6.074011e-01 2.956741e-01
3.985328e+00 5.265265e+00 6.266028e-01 3.018272e-01
4.068356e+00 5.292731e+00 6.458337e-01 3.078998e-01
4.151384e+00 5.319696e+00 6.650624e-01 3.138803e-01
4.234411e+00 5.346107e+00 6.842567e-01 3.197574e-01
4.317439e+00 5.371913e+00 7.033831e-01 3.255195e-01
4.400467e+00 5.397063e+00 7.224076e-01 3.311548e-01
4.483494e+00 5.421503e+00 7.412955e-01 3.366520e-01
4.566522e+00 5.445184e+00 7.600119e-01 3.419997e-01
4.649550e+00 5.468054e+00 7.785217e-01 3.471869e-01
4.732578e+00 5.490062e+00 7.967897e-01 3.522029e-01
4.815605e+00 5.511157e+00 8.147806e-01 3.570371e-01
4.898633e+00 5.531290e+00 8.324590e-01 3.616792e-01
4.981661e+00 5.550411e+00 8.497892e-01 3.661190e-01
5.064688e+00 5.568470e+00 8.667358e-01 3.703467e-01
5.147716e+00 5.585419e+00 8.832641e-01 3.743531e-01
5.230744e+00 5.601209e+00 8.993404e-01 3.781294e-01
5.313771e+00 5.615794e+00 9.149324e-01 3.816680e-01
5.396799e+00 5.629127e+00 9.300077e-01 3.849608e-01
5.479827e+00 5.641162e+00 9.445333e-01 3.880002e-01
5.562854e+00 5.651856e+00 9.584771e-01 3.907788e-01
5.645882e+00 5.661165e+00 9.718085e-01 3.932900e-01
5.728910e+00 5.669050e+00 9.844990e-01 3.955282e-01
5.811937e+00 5.675470e+00 9.965211e-01 3.974881e-01
5.894965e+00 5.680388e+00 1.007848e+00 3.991650e-01
5.977993e+00 5.683766e+00 1.018453e+00 4.005543e-01
6.061020e+00 5.685570e+00 1.028312e+00 4.016521e-01
6.144048e+00 5.685766e+00 1.037401e+00 4.024553e-01
6.227076e+00 5.684324e+00 1.045702e+00 4.029618e-01
6.310103e+00 5.681216e+00 1.053194e+00 4.031700e-01
6.393131e+00 5.676417e+00 1.059861e+00 4.030790e-01
6.476159e+00 5.669902e+00 1.065686e+00 4.026880e-01
6.559186e+00 5.661649e+00 1.070654e+00 4.019967e-01
6.642214e+00 5.651640e+00 1.074753e+00 4.010056e-01
6.725242e+00 5.639859e+00 1.077974e+00 3.997167e-01
6.808269e+00 5.626294e+00 1.080309e+00 3.981327e-01
6.891297e+00 5.610936e+00 1.081755e+00 3.962565e-01
6.974325e+00 5.593776e+00 1.082306e+00 3.940914e-01
7.057352e+00 5.574808e+00 1.081959e+00 3.916410e-01
7.140380e+00 5.554031e+00 1.080718e+00 3.889106e-01
7.223408e+00 5.531448e+00 1.078585e+00 3.859059e-01
7.306435e+00 5.507065e+00 1.075567e+00 3.826333e-01
7.389463e+00 5.480893e+00 1.071673e+00 3.791001e-01
7.472491e+00 5.452942e+00 1.066912e+00 3.753133e-01
7.555519e+00 5.423227e+00 1.061295e+00 3.712804e-01
7.638546e+00 5.391766e+00 1.054836e+00 3.670099e-01
7.721574e+00 5.358582e+00 1.047556e+00 3.625119e-01
7.804602e+00 5.323701e+00 1.039474e+00 3.577967e-01
7.887629e+00 5.287150e+00 1.030615e+00 3.528754e-01
7.970657e+00 5.248961e+00 1.021003e+00 3.477587e-01
8.053685e+00 5.209167e+00 1.010663e+00 3.424579e-01
8.136712e+00 5.167805e+00 9.996246e-01 3.369850e-01
8.219740e+00 5.124915e+00 9.879202e-01 3.313530e-01
8.302768e+00 5.080541e+00 9.755852e-01 3.255756e-01
8.385795e+00 5.034729e+00 9.626563e-01 3.196666e-01
8.468823e+00 4.987526e+00 9.491713e-01 3.136398e-01
8.551851e+00 4.938981e+00 9.351689e-01 3.075092e-01
8.634878e+00 4.889147e+00 9.206902e-01 3.012892e-01
8.717906e+00 4.838079e+00 9.057788e-01 2.949947e-01
8.800934e+00 4.785832e+00 8.904808e-01 2.886412e-01
8.883961e+00 4.732464e+00 8.748431e-01 2.822442e-01
8.966989e+00 4.678034e+00 8.589123e-01 2.758186e-01
9.050017e+00 4.622605e+00 8.427358e-01 2.693797e-01
9.133044e+00 4.566237e+00 8.263620e-01 2.629424e-01
9.216072e+00 4.508994e+00 8.098397e-01 2.565218e-01
9.299100e+00 4.450940e+00 7.932187e-01 2.501328e-01
9.382127e+00 4.392139e+00 7.765487e-01 2.437902e-01
9.465155e+00 4.332656e+00 7.598798e-01 2.375085e-01
9.548183e+00 4.272555e+00 7.432613e-01 2.313020e-01
9.631210e+00 4.211901e+00 7.267420e-01 2.251842e-01
9.714238e+00 4.150759e+00 7.103690e-01 2.191683e-01
9.797266e+00 4.089190e+00 6.941887e-01 2.132668e-01
9.880293e+00 4.027260e+00 6.782459e-01 2.074915e-01
9.963321e+00 3.965029e+00 6.625847e-01 2.018540e-01
1.004635e+01 3.902561e+00 6.472472e-01 1.963650e-01
1.012938e+01 3.839914e+00 6.322732e-01 1.910344e-01
1.021240e+01 3.777148e+00 6.176991e-01 1.858708e-01
1.029543e+01 3.714320e+00 6.035585e-01 1.808819e-01
1.037846e+01 3.651485e+00 5.898825e-01 1.760748e-01
1.046149e+01 3.588697e+00 5.766992e-01 1.714552e-01
1.054451e+01 3.526009e+00 5.640336e-01 1.670282e-01
1.062754e+01 3.463472e+00 5.519068e-01 1.627974e-01
1.071057e+01 3.401135e+00 5.403356e-01 1.587652e-01
1.079360e+01 3.339043e+00 5.293325e-01 1.549329e-01
1.087663e+01 3.277242e+00 5.189067e-01 1.513005e-01
1.095965e+01 3.215775e+00 5.090632e-01 1.478670e-01
1.104268e+01 3.154681e+00 4.998031e-01 1.446305e-01
1.112571e+01 3.094002e+00 4.911236e-01 1.415876e-01
1.120874e+01 3.033772e+00 4.830177e-01 1.387340e-01
1.129176e+01 2.974027e+00 4.754749e-01 1.360645e-01
1.137479e+01 2.914798e+00 4.684811e-01 1.335729e-01
1.145782e+01 2.856116e+00 4.620193e-01 1.312524e-01
1.154085e+01 2.798011e+00 4.560692e-01 1.290952e-01
1.162387e+01 2.740510e+00 4.506078e-01 1.270929e-01
1.170690e+01 2.683637e+00 4.456103e-01 1.252369e-01
1.178993e+01 2.627417e+00 4.410504e-01 1.235181e-01
1.187296e+01 2.571870e+00 4.369001e-01 1.219273e-01
1.195599e+01 2.517017e+00 4.331303e-01 1.204548e-01
1.203901e+01 2.462877e+00 4.297107e-01 1.190910e-01
1.212204e+01 2.409466e+00 4.266109e-01 1.178263e-01
1.220507e+01 2.356801e+00 4.238006e-01 1.166513e-01
1.228810e+01 2.304896e+00 4.212500e-01 1.155569e-01
1.237112e+01 2.253764e+00 4.189298e-01 1.145341e-01
1.245415e+01 2.203416e+00 4.168110e-01 1.135743e-01
1.253718e+01 2.153863e+00 4.148652e-01 1.126692e-01
1.262021e+01 2.105115e+00 4.130652e-01 1.118107e-01
1.270323e+01 2.057180e+00 4.113848e-01 1.109914e-01
1.278626e+01 2.010063e+00 4.097999e-01 1.102042e-01
1.286929e+01 1.963771e+00 4.082873e-01 1.094427e-01
1.295232e+01 1.918308e+00 4.068248e-01 1.087006e-01
1.303535e+01 1.873677e+00 4.053914e-01 1.079721e-01
1.311837e+01 1.829882e+00 4.039677e-01 1.072518e-01
1.320140e+01 1.786923e+00 4.025359e-01 1.065351e-01
1.328443e+01 1.744800e+00 4.010803e-01 1.058176e-01
1.336746e+01 1.703511e+00 3.995862e-01 1.050955e-01
1.345048e+01 1.663055e+00 3.980405e-01 1.043654e-01
1.353351e+01 1.623429e+00 3.964309e-01 1.036240e-01
1.361654e+01 1.584628e+00 3.947470e-01 1.028688e-01
1.369957e+01 1.546648e+00 3.929803e-01 1.020976e-01
1.378259e+01 1.509482e+00 3.911236e-01 1.013087e-01
1.386562e+01 1.473122e+00 3.891711e-01 1.005007e-01
1.394865e+01 1.437560e+00 3.871184e-01 9.967262e-02
1.403168e+01 1.402788e+00 3.849623e-01 9.882379e-02
1.411470e+01 1.368797e+00 3.827013e-01 9.795399e-02
1.419773e+01 1.335576e+00 3.803347e-01 9.706319e-02
1.428076e+01 1.303113e+00 3.778631e-01 9.615170e-02
1.436379e+01 1.271396e+00 3.752883e-01 9.522011e-02
1.444682e+01 1.240413e+00 3.726130e-01 9.426925e-02
1.452984e+01 1.210150e+00 3.698407e-01 9.330015e-02
1.461287e+01 1.180594e+00 3.669762e-01 9.231414e-02
1.469590e+01 1.151731e+00 3.640247e-01 9.131263e-02
1.477893e+01 1.123548e+00 3.609919e-01 9.029717e-02
1.486195e+01 1.096030e+00 3.578842e-01 8.926942e-02
1.494498e+01 1.069164e+00 3.547086e-01 8.823119e-02
1.502801e+01 1.042935e+00 3.514728e-01 8.718447e-02
1.511104e+01 1.017328e+00 3.481847e-01 8.613125e-02
1.519406e+01 9.923306e-01 3.448520e-01 8.507342e-02
1.527709e+01 9.679293e-01 3.414822e-01 8.401289e-02
1.536012e+01 9.441112e-01 3.380832e-01 8.295152e-02
1.544315e+01 9.208631e-01 3.346630e-01 8.189133e-02
1.552618e+01 8.981724e-01 3.312301e-01 8.083431e-02
1.560920e+01 8.760270e-01 3.277927e-01 7.978240e-02
1.569223e+01 8.544155e-01 3.243584e-01 7.873738e-02
1.577526e+01 8.333275e-01 3.209346e-01 7.770098e-02
1.585829e+01 8.127673e-01 3.174947e-01 7.666666e-02
1.594131e+01 7.928314e-01 3.137758e-01 7.557106e-02
1.602434e+01 7.736707e-01 3.093852e-01 7.432033e-02
1.610737e+01 7.551208e-01 3.047204e-01 7.301084e-02
1.619040e+01 7.371479e-01 2.998504e-01 7.165953e-02
1.627342e+01 7.197118e-01 2.948593e-01 7.028674e-02
1.635645e+01 7.028280e-01 2.896970e-01 6.888071e-02
1.643948e+01 6.864277e-01 2.845161e-01 6.747781e-02
1.652251e+01 6.705014e-01 2.793261e-01 6.608026e-02
1.660554e+01 6.550479e-01 2.741173e-01 6.468569e-02
1.668856e+01 6.400379e-01 2.689468e-01 6.330747e-02
1.677159e+01 6.254605e-01 2.638285e-01 6.194876e-02
1.685462e+01 6.112912e-01 2.588081e-01 6.062009e-02
1.693765e+01 5.975089e-01 2.539229e-01 5.932989e-02
1.702067e+01 5.841053e-01 2.491791e-01 5.807929e-02
1.710370e+01 5.710676e-01 2.445938e-01 5.687200e-02
1.718673e+01 5.583870e-01 2.401716e-01 5.570873e-02
1.726976e+01 5.460417e-01 2.359463e-01 5.459692e-02
1.735278e+01 5.340244e-01 2.319165e-01 5.353590e-02
1.743581e+01 5.223169e-01 2.281033e-01 5.253015e-02
1.751884e+01 5.108900e-01 2.245516e-01 5.158953e-02
1.760187e+01 4.997727e-01 2.211735e-01 5.069346e-02
1.768489e+01 4.889153e-01 2.180516e-01 4.986045e-02
1.776792e+01 4.783018e-01 2.151911e-01 4.909125e-02
1.785095e+01 4.679379e-01 2.125472e-01 4.837520e-02
1.793398e+01 4.578066e-01 2.101218e-01 4.771236e-02
1.801701e+01 4.478829e-01 2.079322e-01 4.710626e-02
1.810003e+01 4.381504e-01 2.059749e-01 4.655569e-02
1.818306e+01 4.286029e-01 2.042226e-01 4.605412e-02
1.826609e+01 4.192364e-01 2.026433e-01 4.559400e-02
1.834912e+01 4.100301e-01 2.012389e-01 4.517545e-02
1.843214e+01 4.009637e-01 2.000096e-01 4.479825e-02
1.851517e+01 3.920254e-01 1.989381e-01 4.445823e-02
1.859820e+01 3.832040e-01 1.980066e-01 4.415119e-02
1.868123e+01 3.744936e-01 1.971908e-01 4.387146e-02
1.876425e+01 3.659007e-01 1.964460e-01 4.360896e-02
1.884728e+01 3.573971e-01 1.957950e-01 4.336860e-02
1.893031e+01 3.489752e-01 1.952244e-01 4.314727e-02
1.901334e+01 3.406338e-01 1.947135e-01 4.294030e-02
1.909637e+01 3.324204e-01 1.941631e-01 4.272574e-02
1.917939e+01 3.245134e-01 1.932567e-01 4.243414e-02
1.926242e+01 3.168046e-01 1.921670e-01 4.210382e-02
1.934545e+01 3.092629e-01 1.909424e-01 4.174564e-02
1.942848e+01 3.018856e-01 1.895893e-01 4.136115e-02
1.951150e+01 2.946216e-01 1.881919e-01 4.096885e-02
1.959453e+01 2.874945e-01 1.867233e-01 4.056292e-02
1.967756e+01 2.804712e-01 1.852454e-01 4.015688e-02
1.976059e+01 2.735506e-01 1.837775e-01 3.975489e-02
1.984361e+01 2.667667e-01 1.822891e-01 3.935034e-02
1.992664e+01 2.600958e-01 1.808364e-01 3.895532e-02
2.000967e+01 2.537168e-01 1.791934e-01 3.852124e-02
2.009270e+01 2.478084e-01 1.771227e-01 3.799735e-02
2.017573e+01 2.423149e-01 1.747177e-01 3.740421e-02
2.025875e+01 2.370665e-01 1.722252e-01 3.679497e-02
2.034178e+01 2.319641e-01 1.698029e-01 3.620334e-02
2.042481e+01 2.269818e-01 1.675123e-01 3.564231e-02
2.050784e+01 2.221239e-01 1.653719e-01 3.511559e-02
2.059086e+01 2.173931e-01 1.634011e-01 3.462708e-02
2.067389e+01 2.127874e-01 1.616217e-01 3.418115e-02
2.075692e+01 2.083020e-01 1.600570e-01 3.378247e-02
2.083995e+01 2.039635e-01 1.586871e-01 3.342655e-02
2.092297e+01 1.997708e-01 1.575239e-01 3.311563e-02
2.100600e+01 1.957205e-01 1.565796e-01 3.285198e-02
2.108903e+01 1.918242e-01 1.558446e-01 3.263335e-02
2.117206e+01 1.880831e-01 1.553190e-01 3.245944e-02
2.125509e+01 1.844975e-01 1.549998e-01 3.232943e-02
2.133811e+01 1.810710e-01 1.548787e-01 3.224125e-02
2.142114e+01 1.778128e-01 1.549391e-01 3.219126e-02
2.150417e+01 1.747345e-01 1.551614e-01 3.217515e-02
2.158720e+01 1.718327e-01 1.555420e-01 3.219198e-02
2.167022e+01 1.691004e-01 1.560786e-01 3.224110e-02
2.175325e+01 1.665475e-01 1.567510e-01 3.231813e-02
2.183628e+01 1.644386e-01 1.572747e-01 3.236440e-02
2.191931e+01 1.626459e-01 1.577586e-01 3.240244e-02
2.200233e+01 1.611045e-01 1.582555e-01 3.244311e-02
2.208536e+01 1.597720e-01 1.587985e-01 3.249317e-02
2.216839e+01 1.586403e-01 1.593880e-01 3.255268e-02
2.225142e+01 1.577001e-01 1.600277e-01 3.262228e-02
2.233444e+01 1.569292e-01 1.607322e-01 3.270495e-02
2.241747e+01 1.564109e-01 1.614213e-01 3.278428e-02
2.250050e+01 1.563650e-01 1.618959e-01 3.281996e-02
2.258353e+01 1.569542e-01 1.620357e-01 3.278786e-02
2.266656e+01 1.579089e-01 1.621060e-01 3.274194e-02
2.274958e+01 1.590746e-01 1.622475e-01 3.271067e-02
2.283261e+01 1.604011e-01 1.625023e-01 3.270241e-02
2.291564e+01 1.618632e-01 1.628877e-01 3.272054e-02
2.299867e+01 1.634842e-01 1.633771e-01 3.275955e-02
2.308169e+01 1.652831e-01 1.639435e-01 3.281394e-02
2.316472e+01 1.672535e-01 1.645855e-01 3.288335e-02
2.324775e+01 1.693941e-01 1.652969e-01 3.296646e-02
2.333078e+01 1.716789e-01 1.660980e-01 3.306724e-02
2.341380e+01 1.741019e-01 1.669897e-01 3.318576e-02
2.349683e+01 1.766696e-01 1.679614e-01 3.331983e-02
2.357986e+01 1.793754e-01 1.690165e-01 3.347008e-02
2.366289e+01 1.822244e-01 1.701469e-01 3.363476e-02
2.374592e+01 1.851937e-01 1.713728e-01 3.381781e-02
2.382894e+01 1.882701e-01 1.727043e-01 3.402114e-02
2.391197e+01 1.914570e-01 1.741346e-01 3.424328e-02
2.399500e+01 1.948005e-01 1.756126e-01 3.447413e-02
2.407803e+01 1.982792e-01 1.771600e-01 3.471790e-02
2.416105e+01 2.018647e-01 1.788046e-01 3.497992e-02
2.424408e+01 2.055449e-01 1.805556e-01 3.526194e-02
2.432711e+01 2.093776e-01 1.823472e-01 3.555101e-02
2.441014e+01 2.133486e-01 1.841928e-01 3.584972e-02
2.449316e+01 2.174679e-01 1.860780e-01 3.615519e-02
2.457619e+01 2.216883e-01 1.880522e-01 3.647702e-02
2.465922e+01 2.260037e-01 1.901174e-01 3.681546e-02
2.474225e+01 2.304409e-01 1.922381e-01 3.716363e-02
2.482528e+01 2.349423e-01 1.944743e-01 3.753300e-02
2.490830e+01 2.395129e-01 1.968125e-01 3.792091e-02
2.499133e+01 2.442046e-01 1.991857e-01 3.831437e-02
2.507436e+01 2.489525e-01 2.016642e-01 3.872684e-02
2.515739e+01 2.537766e-01 2.042149e-01 3.915190e-02
2.524041e+01 2.586678e-01 2.068415e-01 3.959019e-02
2.532344e+01 2.636481e-01 2.095088e-01 4.003493e-02
2.540647e+01 2.687009e-01 2.122314e-01 4.048886e-02
2.548950e+01 2.737951e-01 2.150386e-01 4.095754e-02
2.557252e+01 2.789431e-01 2.179069e-01 4.143643e-02
2.565555e+01 2.841627e-01 2.208084e-01 4.192018e-02
2.573858e+01 2.894340e-01 2.237623e-01 4.241239e-02
2.582161e+01 2.947575e-01 2.267625e-01 4.291189e-02
2.590463e+01 3.001507e-01 2.297819e-01 4.341354e-02
2.598766e+01 3.056125e-01 2.328200e-01 4.391722e-02
2.607069e+01 3.111331e-01 2.358863e-01 4.442471e-02
2.615372e+01 3.167732e-01 2.389012e-01 4.492104e-02
2.623675e+01 3.225253e-01 2.418768e-01 4.540852e-02
2.631977e+01 3.283503e-01 2.448660e-01 4.589712e-02
2.640280e+01 3.342758e-01 2.478341e-01 4.638038e-02
2.648583e+01 3.403117e-01 2.507731e-01 4.685676e-02
2.656886e+01 3.464341e-01 2.537168e-01 4.733266e-02
2.665188e+01 3.526947e-01 2.566030e-01 4.779648e-02
2.673491e+01 3.591082e-01 2.594171e-01 4.824557e-02
2.681794e+01 3.657624e-01 2.620483e-01 4.865940e-02
2.690097e+01 3.726569e-01 2.645061e-01 4.903994e-02
2.698399e+01 3.797674e-01 2.668318e-01 4.939495e-02
2.706702e+01 3.870943e-01 2.690322e-01 4.972584e-02
2.715005e+01 3.946692e-01 2.710682e-01 5.002549e-02
2.723308e+01 4.024482e-01 2.730090e-01 5.030680e-02
2.731611e+01 4.104224e-01 2.748726e-01 5.057317e-02
2.739913e+01 4.185600e-01 2.767086e-01 5.083378e-02
2.748216e+01 4.268439e-01 2.785463e-01 5.109402e-02
2.756519e+01 4.352808e-01 2.803788e-01 5.135265e-02
2.764822e+01 4.438656e-01 2.822166e-01 5.161158e-02
2.773124e+01 4.526332e-01 2.840062e-01 5.186104e-02
2.781427e+01 4.615827e-01 2.857489e-01 5.210133e-02
2.789730e+01 4.707354e-01 2.874091e-01 5.232600e-02
2.798033e+01 4.800842e-01 2.889954e-01 5.253668e-02
2.806335e+01 4.896815e-01 2.904188e-01 5.271730e-02
2.814638e+01 4.995435e-01 2.916457e-01 5.286186e-02
2.822941e+01 5.096958e-01 2.926245e-01 5.296121e-02
2.831244e+01 5.201777e-01 2.932770e-01 5.300141e-02
2.839547e+01 5.308781e-01 2.937856e-01 5.301565e-02
2.847849e+01 5.417321e-01 2.942573e-01 5.302332e-02
2.856152e+01 5.527359e-01 2.946931e-01 5.302460e-02
2.864455e+01 5.638861e-01 2.950931e-01 5.301957e-02
2.872758e+01 5.751777e-01 2.954585e-01 5.300846e-02
2.881060e+01 5.866050e-01 2.957911e-01 5.299160e-02
2.889363e+01 5.981622e-01 2.960931e-01 5.296944e-02
2.897666e+01 6.098430e-01 2.963675e-01 5.294252e-02
2.905969e+01 6.216408e-01 2.966177e-01 5.291147e-02
2.914271e+01 6.335483e-01 2.968479e-01 5.287703e-02
2.922574e+01 6.455578e-01 2.970626e-01 5.284007e-02
2.930877e+01 6.576612e-01 2.972669e-01 5.280145e-02
2.939180e+01 6.698502e-01 2.974657e-01 5.276208e-02
2.947482e+01 6.821172e-01 2.976642e-01 5.272287e-02
2.955785e+01 6.944540e-01 2.978674e-01 5.268472e-02
2.964088e+01 7.068527e-01 2.980807e-01 5.264856e-02
2.972391e+01 7.193059e-01 2.983094e-01 5.261532e-02
2.980694e+01 7.318064e-01 2.985586e-01 5.258588e-02
2.988996e+01 7.443477e-01 2.988333e-01 5.256111e-02
2.997299e+01 7.569230e-01 2.991383e-01 5.254181e-02
3.005602e+01 7.695262e-01 2.994779e-01 5.252876e-02
3.013905e+01 7.821524e-01 2.998568e-01 5.252272e-02
3.022207e+01 7.947970e-01 3.002793e-01 5.252443e-02
3.030510e+01 8.074565e-01 3.007496e-01 5.253458e-02
3.038813e+01 8.201279e-01 3.012718e-01 5.255387e-02
3.047116e+01 8.328089e-01 3.018503e-01 5.258298e-02
3.055418e+01 8.454974e-01 3.024890e-01 5.262262e-02
3.063721e+01 8.581926e-01 3.031922e-01 5.267343e-02
3.072024e+01 8.708949e-01 3.039638e-01 5.273605e-02
3.080327e+01 8.836055e-01 3.048075e-01 5.281113e-02
3.088630e+01 8.963262e-01 3.057274e-01 5.289926e-02
3.096932e+01 9.090593e-01 3.067271e-01 5.300104e-02
3.105235e+01 9.218076e-01 3.078103e-01 5.311707e-02
3.113538e+01 9.345749e-01 3.089805e-01 5.324785e-02
3.121841e+01 9.473657e-01 3.102403e-01 5.339381e-02
3.130143e+01 9.601857e-01 3.115919e-01 5.355526e-02
3.138446e+01 9.730407e-01 3.130371e-01 5.373244e-02
3.146749e+01 9.859368e-01 3.145771e-01 5.392551e-02
3.155052e+01 9.988808e-01 3.162126e-01 5.413450e-02
3.163354e+01 1.011880e+00 3.179432e-01 5.435928e-02
3.171657e+01 1.024942e+00 3.197672e-01 5.459954e-02
