# r[au]  T_bright_linear [K]   Variance [K]   Error [K]
0.000000e+00 4.260428e+00 0.000000e+00 0.000000e+00
8.302768e-02 4.261074e+00 7.003951e-03 7.003951e-03
1.660554e-01 4.262934e+00 1.402623e-02 1.402623e-02
2.490830e-01 4.266007e+00 2.108299e-02 2.108299e-02
3.321107e-01 4.270287e+00 2.819042e-02 2.819042e-02
4.151384e-01 4.275772e+00 3.536486e-02 3.536486e-02
4.981661e-01 4.282455e+00 4.262266e-02 4.262266e-02
5.811937e-01 4.290333e+00 4.998058e-02 4.998058e-02
6.642214e-01 4.299396e+00 5.745687e-02 5.745687e-02
7.472491e-01 4.309635e+00 6.507090e-02 6.507090e-02
8.302768e-01 4.321038e+00 7.284237e-02 7.284237e-02
9.133044e-01 4.333592e+00 8.079104e-02 8.079104e-02
9.963321e-01 4.347284e+00 8.893663e-02 8.567946e-02
1.079360e+00 4.362100e+00 9.729889e-02 9.005813e-02
1.162387e+00 4.378023e+00 1.058984e-01 9.445216e-02
1.245415e+00 4.395034e+00 1.147560e-01 9.888180e-02
1.328443e+00 4.413110e+00 1.238925e-01 1.033646e-01
1.411470e+00 4.432231e+00 1.333282e-01 1.079156e-01
1.494498e+00 4.452372e+00 1.430825e-01 1.125478e-01
1.577526e+00 4.473509e+00 1.531741e-01 1.172722e-01
1.660554e+00 4.495613e+00 1.636204e-01 1.220981e-01
1.743581e+00 4.518655e+00 1.744374e-01 1.270331e-01
1.826609e+00 4.542604e+00 1.856393e-01 1.320825e-01
1.909637e+00 4.567425e+00 1.972394e-01 1.372513e-01
1.992664e+00 4.593084e+00 2.092500e-01 1.425432e-01
2.075692e+00 4.619543e+00 2.216817e-01 1.479607e-01
2.158720e+00 4.646764e+00 2.345421e-01 1.535044e-01
2.241747e+00 4.674706e+00 2.478364e-01 1.591732e-01
2.324775e+00 4.703325e+00 2.615672e-01 1.649647e-01
2.407803e+00 4.732578e+00 2.757353e-01 1.708756e-01
2.490830e+00 4.762418e+00 2.903401e-01 1.769021e-01
2.573858e+00 4.792800e+00 3.053787e-01 1.830394e-01
2.656886e+00 4.823675e+00 3.208457e-01 1.892814e-01
2.739913e+00 4.854993e+00 3.367322e-01 1.956205e-01
2.822941e+00 4.886703e+00 3.530272e-01 2.020484e-01
2.905969e+00 4.918752e+00 3.697176e-01 2.085561e-01
2.988996e+00 4.951088e+00 3.867891e-01 2.151343e-01
3.072024e+00 4.983657e+00 4.042258e-01 2.217736e-01
3.155052e+00 5.016405e+00 4.220092e-01 2.284635e-01
3.238079e+00 5.049276e+00 4.401185e-01 2.351928e-01
3.321107e+00 5.082213e+00 4.585306e-01 2.419496e-01
3.404135e+00 5.115159e+00 4.772209e-01 2.487220e-01
3.487162e+00 5.148057e+00 4.961639e-01 2.554978e-01
3.570190e+00 5.180851e+00 5.153335e-01 2.622653e-01
3.653218e+00 5.213481e+00 5.347017e-01 2.690122e-01
3.736245e+00 5.245891e+00 5.542383e-01 2.757255e-01
3.819273e+00 5.278020e+00 5.739117e-01 2.823923e-01
3.902301e+00 5.309810e+00 5.936895e-01 2.889995e-01
3.985328e+00 5.341204e+00 6.135382e-01 2.955342e-01
4.068356e+00 5.372143e+00 6.334239e-01 3.019834e-01
4.151384e+00 5.402568e+00 6.533116e-01 3.083345e-01
4.234411e+00 5.432421e+00 6.731658e-01 3.145746e-01
4.317439e+00 5.461643e+00 6.929499e-01 3.206911e-01
4.400467e+00 5.490177e+00 7.126268e-01 3.266712e-01
4.483494e+00 5.517963e+00 7.321589e-01 3.325027e-01
4.566522e+00 5.544945e+00 7.515081e-01 3.381731e-01
4.649550e+00 5.571065e+00 7.706365e-01 3.436705e-01
4.732578e+00 5.596266e+00 7.895061e-01 3.489834e-01
4.815605e+00 5.620491e+00 8.080786e-01 3.541003e-01
4.898633e+00 5.643685e+00 8.263157e-01 3.590101e-01
4.981661e+00 5.665790e+00 8.441790e-01 3.637019e-01
5.064688e+00 5.686752e+00 8.616301e-01 3.681651e-01
5.147716e+00 5.706516e+00 8.786313e-01 3.723896e-01
5.230744e+00 5.725029e+00 8.951459e-01 3.763659e-01
5.313771e+00 5.742237e+00 9.111386e-01 3.800854e-01
5.396799e+00 5.758087e+00 9.265741e-01 3.835396e-01
5.479827e+00 5.772529e+00 9.414163e-01 3.867198e-01
5.562854e+00 5.785514e+00 9.556304e-01 3.896182e-01
5.645882e+00 5.796993e+00 9.691831e-01 3.922275e-01
5.728910e+00 5.806920e+00 9.820426e-01 3.945413e-01
5.811937e+00 5.815249e+00 9.941789e-01 3.965539e-01
5.894965e+00 5.821939e+00 1.005563e+00 3.982600e-01
5.977993e+00 5.826948e+00 1.016166e+00 3.996548e-01
6.061020e+00 5.830234e+00 1.025962e+00 4.007342e-01
6.144048e+00 5.831763e+00 1.034925e+00 4.014947e-01
6.227076e+00 5.831499e+00 1.043035e+00 4.019343e-01
6.310103e+00 5.829412e+00 1.050272e+00 4.020515e-01
6.393131e+00 5.825471e+00 1.056617e+00 4.018453e-01
6.476159e+00 5.819651e+00 1.062054e+00 4.013156e-01
6.559186e+00 5.811928e+00 1.066568e+00 4.004625e-01
6.642214e+00 5.802280e+00 1.070148e+00 3.992875e-01
6.725242e+00 5.790693e+00 1.072786e+00 3.977931e-01
6.808269e+00 5.777151e+00 1.074476e+00 3.959829e-01
6.891297e+00 5.761647e+00 1.075214e+00 3.938608e-01
6.974325e+00 5.744173e+00 1.075000e+00 3.914314e-01
7.057352e+00 5.724723e+00 1.073835e+00 3.887001e-01
7.140380e+00 5.703298e+00 1.071722e+00 3.856733e-01
7.223408e+00 5.679904e+00 1.068669e+00 3.823581e-01
7.306435e+00 5.654549e+00 1.064687e+00 3.787628e-01
7.389463e+00 5.627246e+00 1.059788e+00 3.748958e-01
7.472491e+00 5.598010e+00 1.053986e+00 3.707663e-01
7.555519e+00 5.566860e+00 1.047297e+00 3.663836e-01
7.638546e+00 5.533818e+00 1.039741e+00 3.617579e-01
7.721574e+00 5.498911e+00 1.031341e+00 3.569008e-01
7.804602e+00 5.462171e+00 1.022123e+00 3.518243e-01
7.887629e+00 5.423631e+00 1.012114e+00 3.465408e-01
7.970657e+00 5.383326e+00 1.001344e+00 3.410629e-01
8.053685e+00 5.341298e+00 9.898434e-01 3.354033e-01
8.136712e+00 5.297586e+00 9.776445e-01 3.295753e-01
8.219740e+00 5.252239e+00 9.647840e-01 3.235930e-01
8.302768e+00 5.205305e+00 9.513005e-01 3.174712e-01
8.385795e+00 5.156836e+00 9.372337e-01 3.112246e-01
8.468823e+00 5.106884e+00 9.226245e-01 3.048678e-01
8.551851e+00 5.055505e+00 9.075143e-01 2.984156e-01
8.634878e+00 5.002756e+00 8.919466e-01 2.918831e-01
8.717906e+00 4.948696e+00 8.759671e-01 2.852856e-01
8.800934e+00 4.893386e+00 8.596233e-01 2.786390e-01
8.883961e+00 4.836889e+00 8.429635e-01 2.719591e-01
8.966989e+00 4.779268e+00 8.260358e-01 2.652612e-01
9.050017e+00 4.720588e+00 8.088889e-01 2.585606e-01
9.133044e+00 4.660915e+00 7.915727e-01 2.518727e-01
9.216072e+00 4.600315e+00 7.741379e-01 2.452130e-01
9.299100e+00 4.538856e+00 7.566357e-01 2.385967e-01
9.382127e+00 4.476604e+00 7.391180e-01 2.320392e-01
9.465155e+00 4.413627e+00 7.216374e-01 2.255554e-01
9.548183e+00 4.349991e+00 7.042464e-01 2.191606e-01
9.631210e+00 4.285764e+00 6.869976e-01 2.128692e-01
9.714238e+00 4.221013e+00 6.699429e-01 2.066957e-01
9.797266e+00 4.155802e+00 6.531342e-01 2.006541e-01
9.880293e+00 4.090197e+00 6.366233e-01 1.947582e-01
9.963321e+00 4.024263e+00 6.204616e-01 1.890214e-01
1.004635e+01 3.958064e+00 6.047001e-01 1.834569e-01
1.012938e+01 3.891662e+00 5.893883e-01 1.780772e-01
1.021240e+01 3.825119e+00 5.745736e-01 1.728939e-01
1.029543e+01 3.758493e+00 5.603014e-01 1.679181e-01
1.037846e+01 3.691844e+00 5.466154e-01 1.631600e-01
1.046149e+01 3.625229e+00 5.335570e-01 1.586289e-01
1.054451e+01 3.558705e+00 5.211642e-01 1.543332e-01
1.062754e+01 3.492324e+00 5.094711e-01 1.502800e-01
1.071057e+01 3.426140e+00 4.985074e-01 1.464750e-01
1.079360e+01 3.360204e+00 4.882971e-01 1.429220e-01
1.087663e+01 3.294565e+00 4.788597e-01 1.396238e-01
1.095965e+01 3.229270e+00 4.702084e-01 1.365809e-01
1.104268e+01 3.164365e+00 4.623500e-01 1.337925e-01
1.112571e+01 3.099894e+00 4.552847e-01 1.312554e-01
1.120874e+01 3.035900e+00 4.490054e-01 1.289648e-01
1.129176e+01 2.972421e+00 4.434982e-01 1.269139e-01
1.137479e+01 2.909497e+00 4.387422e-01 1.250938e-01
1.145782e+01 2.847163e+00 4.347102e-01 1.234943e-01
1.154085e+01 2.785454e+00 4.313686e-01 1.221034e-01
1.162387e+01 2.724402e+00 4.286785e-01 1.209078e-01
1.170690e+01 2.664040e+00 4.265966e-01 1.198932e-01
1.178993e+01 2.604395e+00 4.250758e-01 1.190444e-01
1.187296e+01 2.545494e+00 4.240662e-01 1.183457e-01
1.195599e+01 2.487363e+00 4.235159e-01 1.177810e-01
1.203901e+01 2.430026e+00 4.233714e-01 1.173341e-01
1.212204e+01 2.373503e+00 4.235793e-01 1.169890e-01
1.220507e+01 2.317815e+00 4.240869e-01 1.167301e-01
1.228810e+01 2.262981e+00 4.248426e-01 1.165424e-01
1.237112e+01 2.209016e+00 4.257969e-01 1.164116e-01
1.245415e+01 2.155934e+00 4.269024e-01 1.163241e-01
1.253718e+01 2.103751e+00 4.281136e-01 1.162672e-01
1.262021e+01 2.052476e+00 4.293885e-01 1.162292e-01
1.270323e+01 2.002120e+00 4.306877e-01 1.161993e-01
1.278626e+01 1.952691e+00 4.319756e-01 1.161677e-01
1.286929e+01 1.904195e+00 4.332193e-01 1.161258e-01
1.295232e+01 1.856636e+00 4.343894e-01 1.160656e-01
1.303535e+01 1.810018e+00 4.354593e-01 1.159804e-01
1.311837e+01 1.764344e+00 4.364055e-01 1.158640e-01
1.320140e+01 1.719614e+00 4.372077e-01 1.157113e-01
1.328443e+01 1.675826e+00 4.378485e-01 1.155182e-01
1.336746e+01 1.632977e+00 4.383133e-01 1.152812e-01
1.345048e+01 1.591065e+00 4.385899e-01 1.149973e-01
1.353351e+01 1.550083e+00 4.386684e-01 1.146646e-01
1.361654e+01 1.510026e+00 4.385412e-01 1.142813e-01
1.369957e+01 1.470886e+00 4.382031e-01 1.138466e-01
1.378259e+01 1.432654e+00 4.376509e-01 1.133602e-01
1.386562e+01 1.395321e+00 4.368830e-01 1.128219e-01
1.394865e+01 1.358874e+00 4.358994e-01 1.122324e-01
1.403168e+01 1.323303e+00 4.347019e-01 1.115925e-01
1.411470e+01 1.288596e+00 4.332939e-01 1.109034e-01
1.419773e+01 1.254739e+00 4.316794e-01 1.101666e-01
1.428076e+01 1.221718e+00 4.298634e-01 1.093838e-01
1.436379e+01 1.189518e+00 4.278524e-01 1.085569e-01
1.444682e+01 1.158124e+00 4.256531e-01 1.076881e-01
1.452984e+01 1.127521e+00 4.232734e-01 1.067797e-01
1.461287e+01 1.097693e+00 4.207216e-01 1.058340e-01
1.469590e+01 1.068623e+00 4.180062e-01 1.048535e-01
1.477893e+01 1.040296e+00 4.151364e-01 1.038407e-01
1.486195e+01 1.012695e+00 4.121215e-01 1.027982e-01
1.494498e+01 9.858051e-01 4.089711e-01 1.017286e-01
1.502801e+01 9.596096e-01 4.056947e-01 1.006345e-01
1.511104e+01 9.340929e-01 4.023023e-01 9.951842e-02
1.519406e+01 9.092398e-01 3.988030e-01 9.838289e-02
1.527709e+01 8.850357e-01 3.952064e-01 9.723033e-02
1.536012e+01 8.614661e-01 3.915216e-01 9.606308e-02
1.544315e+01 8.385294e-01 3.877310e-01 9.487696e-02
1.552618e+01 8.162941e-01 3.836702e-01 9.363192e-02
1.560920e+01 7.947602e-01 3.793262e-01 9.232528e-02
1.569223e+01 7.738609e-01 3.748268e-01 9.098847e-02
1.577526e+01 7.535616e-01 3.702315e-01 8.963616e-02
1.585829e+01 7.338723e-01 3.655091e-01 8.826088e-02
1.594131e+01 7.149162e-01 3.604017e-01 8.680064e-02
1.602434e+01 6.966787e-01 3.549258e-01 8.526006e-02
1.610737e+01 6.790906e-01 3.492066e-01 8.366971e-02
1.619040e+01 6.620826e-01 3.433668e-01 8.205927e-02
1.627342e+01 6.456412e-01 3.374195e-01 8.043198e-02
1.635645e+01 6.297281e-01 3.314260e-01 7.880254e-02
1.643948e+01 6.143485e-01 3.253656e-01 7.716596e-02
1.652251e+01 5.994646e-01 3.192976e-01 7.553633e-02
1.660554e+01 5.850652e-01 3.132318e-01 7.391586e-02
1.668856e+01 5.711208e-01 3.072120e-01 7.231473e-02
1.677159e+01 5.576202e-01 3.012473e-01 7.073498e-02
1.685462e+01 5.445425e-01 2.953660e-01 6.918297e-02
1.693765e+01 5.318575e-01 2.896116e-01 6.766865e-02
1.702067e+01 5.195699e-01 2.839643e-01 6.618711e-02
1.710370e+01 5.076635e-01 2.784419e-01 6.474223e-02
1.718673e+01 4.961198e-01 2.730645e-01 6.333835e-02
1.726976e+01 4.849174e-01 2.678569e-01 6.198089e-02
1.735278e+01 4.740466e-01 2.628211e-01 6.066997e-02
1.743581e+01 4.634852e-01 2.579808e-01 5.941066e-02
1.751884e+01 4.532272e-01 2.533306e-01 5.820136e-02
1.760187e+01 4.432706e-01 2.488550e-01 5.703812e-02
1.768489e+01 4.335786e-01 2.445974e-01 5.593051e-02
1.776792e+01 4.241406e-01 2.405540e-01 5.487725e-02
1.785095e+01 4.149666e-01 2.366827e-01 5.386840e-02
1.793398e+01 4.060277e-01 2.330082e-01 5.290917e-02
1.801701e+01 3.973024e-01 2.295400e-01 5.200141e-02
1.810003e+01 3.887779e-01 2.262719e-01 5.114335e-02
1.818306e+01 3.804526e-01 2.231777e-01 5.032866e-02
1.826609e+01 3.723226e-01 2.202339e-01 4.955181e-02
1.834912e+01 3.643614e-01 2.174550e-01 4.881575e-02
1.843214e+01 3.565539e-01 2.148360e-01 4.811908e-02
1.851517e+01 3.488998e-01 2.123480e-01 4.745505e-02
1.859820e+01 3.413943e-01 2.099709e-01 4.681896e-02
1.868123e+01 3.340799e-01 2.076132e-01 4.619026e-02
1.876425e+01 3.270655e-01 2.050902e-01 4.552787e-02
1.884728e+01 3.202563e-01 2.025435e-01 4.486338e-02
1.893031e+01 3.136281e-01 1.999996e-01 4.420266e-02
1.901334e+01 3.071457e-01 1.975028e-01 4.355541e-02
1.909637e+01 3.007921e-01 1.950687e-01 4.292501e-02
1.917939e+01 2.947167e-01 1.924544e-01 4.225797e-02
1.926242e+01 2.888195e-01 1.897949e-01 4.158409e-02
1.934545e+01 2.830751e-01 1.871205e-01 4.091005e-02
1.942848e+01 2.774718e-01 1.844451e-01 4.023888e-02
1.951150e+01 2.719632e-01 1.818368e-01 3.958536e-02
1.959453e+01 2.665695e-01 1.792703e-01 3.894387e-02
1.967756e+01 2.612577e-01 1.768009e-01 3.832630e-02
1.976059e+01 2.560228e-01 1.744479e-01 3.773671e-02
1.984361e+01 2.508968e-01 1.721790e-01 3.716790e-02
1.992664e+01 2.458489e-01 1.700531e-01 3.663243e-02
2.000967e+01 2.409381e-01 1.680061e-01 3.611631e-02
2.009270e+01 2.364218e-01 1.656839e-01 3.554342e-02
2.017573e+01 2.322476e-01 1.631562e-01 3.492907e-02
2.025875e+01 2.283211e-01 1.605606e-01 3.430290e-02
2.034178e+01 2.245197e-01 1.580812e-01 3.370420e-02
2.042481e+01 2.208028e-01 1.557958e-01 3.314933e-02
2.050784e+01 2.171845e-01 1.537055e-01 3.263830e-02
2.059086e+01 2.136612e-01 1.518340e-01 3.217584e-02
2.067389e+01 2.102353e-01 1.501946e-01 3.176446e-02
2.075692e+01 2.069003e-01 1.488108e-01 3.140878e-02
2.083995e+01 2.036745e-01 1.476691e-01 3.110567e-02
2.092297e+01 2.005692e-01 1.467629e-01 3.085339e-02
2.100600e+01 1.975860e-01 1.460959e-01 3.065239e-02
2.108903e+01 1.947323e-01 1.456619e-01 3.050112e-02
2.117206e+01 1.920067e-01 1.454621e-01 3.039950e-02
2.125509e+01 1.894153e-01 1.454857e-01 3.034499e-02
2.133811e+01 1.869636e-01 1.457207e-01 3.033482e-02
2.142114e+01 1.846644e-01 1.461449e-01 3.036410e-02
2.150417e+01 1.825262e-01 1.467410e-01 3.042904e-02
2.158720e+01 1.805477e-01 1.475025e-01 3.052806e-02
2.167022e+01 1.787286e-01 1.484203e-01 3.065913e-02
2.175325e+01 1.770820e-01 1.494701e-01 3.081700e-02
2.183628e+01 1.758172e-01 1.503989e-01 3.094950e-02
2.191931e+01 1.748412e-01 1.512929e-01 3.107443e-02
2.200233e+01 1.740952e-01 1.522059e-01 3.120292e-02
2.208536e+01 1.735455e-01 1.531669e-01 3.134085e-02
2.216839e+01 1.731924e-01 1.541678e-01 3.148653e-02
2.225142e+01 1.730211e-01 1.552192e-01 3.164205e-02
2.233444e+01 1.730309e-01 1.563154e-01 3.180623e-02
2.241747e+01 1.733532e-01 1.573144e-01 3.195017e-02
2.250050e+01 1.741947e-01 1.580087e-01 3.203193e-02
2.258353e+01 1.754980e-01 1.584826e-01 3.206888e-02
2.266656e+01 1.770582e-01 1.589510e-01 3.210470e-02
2.274958e+01 1.787837e-01 1.595051e-01 3.215778e-02
2.283261e+01 1.806623e-01 1.601502e-01 3.222907e-02
2.291564e+01 1.826814e-01 1.608912e-01 3.231948e-02
2.299867e+01 1.848626e-01 1.616952e-01 3.242231e-02
2.308169e+01 1.872043e-01 1.625528e-01 3.253559e-02
2.316472e+01 1.896950e-01 1.634663e-01 3.265974e-02
2.324775e+01 1.923276e-01 1.644331e-01 3.279420e-02
2.333078e+01 1.950968e-01 1.654513e-01 3.293850e-02
2.341380e+01 1.979842e-01 1.665336e-01 3.309511e-02
2.349683e+01 2.009918e-01 1.676697e-01 3.326198e-02
2.357986e+01 2.041206e-01 1.688527e-01 3.343762e-02
2.366289e+01 2.073737e-01 1.700721e-01 3.361997e-02
2.374592e+01 2.107264e-01 1.713511e-01 3.381353e-02
2.382894e+01 2.141712e-01 1.726929e-01 3.401890e-02
2.391197e+01 2.176952e-01 1.741074e-01 3.423795e-02
2.399500e+01 2.213278e-01 1.755542e-01 3.446268e-02
2.407803e+01 2.250945e-01 1.769994e-01 3.468642e-02
2.416105e+01 2.289423e-01 1.785047e-01 3.492125e-02
2.424408e+01 2.328543e-01 1.800867e-01 3.517037e-02
2.432711e+01 2.368621e-01 1.817022e-01 3.542526e-02
2.441014e+01 2.410032e-01 1.833026e-01 3.567646e-02
2.449316e+01 2.452460e-01 1.849252e-01 3.593120e-02
2.457619e+01 2.495747e-01 1.865882e-01 3.619305e-02
2.465922e+01 2.539759e-01 1.883052e-01 3.646454e-02
2.474225e+01 2.584768e-01 1.900387e-01 3.673843e-02
2.482528e+01 2.630231e-01 1.918567e-01 3.702782e-02
2.490830e+01 2.676194e-01 1.937493e-01 3.733070e-02
2.499133e+01 2.722895e-01 1.956810e-01 3.764021e-02
2.507436e+01 2.770202e-01 1.976671e-01 3.795925e-02
2.515739e+01 2.818090e-01 1.997068e-01 3.828760e-02
2.524041e+01 2.866370e-01 2.018223e-01 3.862950e-02
2.532344e+01 2.915239e-01 2.039818e-01 3.897878e-02
2.540647e+01 2.964840e-01 2.061638e-01 3.933131e-02
2.548950e+01 3.014741e-01 2.084246e-01 3.969780e-02
2.557252e+01 3.064966e-01 2.107569e-01 4.007681e-02
2.565555e+01 3.115751e-01 2.131244e-01 4.046137e-02
2.573858e+01 3.166999e-01 2.155389e-01 4.085372e-02
2.582161e+01 3.218678e-01 2.180038e-01 4.125442e-02
2.590463e+01 3.270873e-01 2.205046e-01 4.166074e-02
2.598766e+01 3.323605e-01 2.230380e-01 4.207202e-02
2.607069e+01 3.377018e-01 2.255841e-01 4.248449e-02
2.615372e+01 3.431222e-01 2.281274e-01 4.289521e-02
2.623675e+01 3.486442e-01 2.306377e-01 4.329855e-02
2.631977e+01 3.542419e-01 2.331578e-01 4.370257e-02
2.640280e+01 3.599086e-01 2.357009e-01 4.410973e-02
2.648583e+01 3.656903e-01 2.382034e-01 4.450813e-02
2.656886e+01 3.715538e-01 2.407205e-01 4.490810e-02
2.665188e+01 3.775384e-01 2.431988e-01 4.529973e-02
2.673491e+01 3.836717e-01 2.456045e-01 4.567673e-02
2.681794e+01 3.900248e-01 2.478375e-01 4.602061e-02
2.690097e+01 3.965739e-01 2.499442e-01 4.634013e-02
2.698399e+01 4.033242e-01 2.519253e-01 4.663553e-02
2.706702e+01 4.102538e-01 2.538243e-01 4.691492e-02
2.715005e+01 4.174034e-01 2.555850e-01 4.716808e-02
2.723308e+01 4.247682e-01 2.572233e-01 4.739800e-02
2.731611e+01 4.323344e-01 2.587684e-01 4.761020e-02
2.739913e+01 4.400475e-01 2.603153e-01 4.782219e-02
2.748216e+01 4.479125e-01 2.618619e-01 4.803359e-02
2.756519e+01 4.559251e-01 2.634207e-01 4.824670e-02
2.764822e+01 4.641030e-01 2.649668e-01 4.845694e-02
2.773124e+01 4.724611e-01 2.664773e-01 4.866018e-02
2.781427e+01 4.810082e-01 2.679401e-01 4.885421e-02
2.789730e+01 4.897569e-01 2.693330e-01 4.903506e-02
2.798033e+01 4.987178e-01 2.706378e-01 4.919945e-02
2.806335e+01 5.079286e-01 2.717845e-01 4.933476e-02
2.814638e+01 5.173873e-01 2.727726e-01 4.944104e-02
2.822941e+01 5.271230e-01 2.735425e-01 4.950762e-02
2.831244e+01 5.371768e-01 2.740087e-01 4.951923e-02
2.839547e+01 5.474274e-01 2.743959e-01 4.951665e-02
2.847849e+01 5.578447e-01 2.747571e-01 4.950951e-02
2.856152e+01 5.684260e-01 2.750923e-01 4.949779e-02
2.864455e+01 5.791680e-01 2.754010e-01 4.948149e-02
2.872758e+01 5.900661e-01 2.756840e-01 4.946070e-02
2.881060e+01 6.011153e-01 2.759422e-01 4.943563e-02
2.889363e+01 6.123095e-01 2.761769e-01 4.940653e-02
2.897666e+01 6.236424e-01 2.763895e-01 4.937368e-02
2.905969e+01 6.351071e-01 2.765820e-01 4.933744e-02
2.914271e+01 6.466959e-01 2.767568e-01 4.929825e-02
2.922574e+01 6.584004e-01 2.769166e-01 4.925658e-02
2.930877e+01 6.702119e-01 2.770642e-01 4.921299e-02
2.939180e+01 6.821213e-01 2.772025e-01 4.916796e-02
2.947482e+01 6.941198e-01 2.773343e-01 4.912200e-02
2.955785e+01 7.061983e-01 2.774624e-01 4.907563e-02
2.964088e+01 7.183476e-01 2.775901e-01 4.902939e-02
2.972391e+01 7.305588e-01 2.777204e-01 4.898385e-02
2.980694e+01 7.428232e-01 2.778565e-01 4.893956e-02
2.988996e+01 7.551327e-01 2.780018e-01 4.889709e-02
2.997299e+01 7.674793e-01 2.781595e-01 4.885702e-02
3.005602e+01 7.798553e-01 2.783332e-01 4.881996e-02
3.013905e+01 7.922540e-01 2.785267e-01 4.878656e-02
3.022207e+01 8.046695e-01 2.787441e-01 4.875753e-02
3.030510e+01 8.170969e-01 2.789899e-01 4.873364e-02
3.038813e+01 8.295314e-01 2.792692e-01 4.871572e-02
3.047116e+01 8.419692e-01 2.795872e-01 4.870471e-02
3.055418e+01 8.544075e-01 2.799499e-01 4.870159e-02
3.063721e+01 8.668445e-01 2.803633e-01 4.870737e-02
3.072024e+01 8.792799e-01 2.808339e-01 4.872315e-02
3.080327e+01 8.917141e-01 2.813685e-01 4.875006e-02
3.088630e+01 9.041484e-01 2.819739e-01 4.878924e-02
3.096932e+01 9.165847e-01 2.826572e-01 4.884187e-02
3.105235e+01 9.290258e-01 2.834254e-01 4.890909e-02
3.113538e+01 9.414761e-01 2.842853e-01 4.899203e-02
3.121841e+01 9.539407e-01 2.852428e-01 4.909164e-02
3.130143e+01 9.664259e-01 2.863036e-01 4.920880e-02
3.138446e+01 9.789383e-01 2.874722e-01 4.934426e-02
3.146749e+01 9.914852e-01 2.887526e-01 4.949860e-02
3.155052e+01 1.004075e+00 2.901477e-01 4.967227e-02
3.163354e+01 1.016717e+00 2.916588e-01 4.986540e-02
3.171657e+01 1.029421e+00 2.932859e-01 5.007790e-02
