# r[au]  T_bright_linear [K]   Variance [K]   Error [K]
0.000000e+00 4.553839e+01 0.000000e+00 0.000000e+00
1.263132e-01 4.553307e+01 1.491519e-01 1.491519e-01
2.526263e-01 4.552021e+01 2.977525e-01 2.977525e-01
3.789395e-01 4.549988e+01 4.455788e-01 4.455788e-01
5.052526e-01 4.547139e+01 5.919348e-01 5.919348e-01
6.315658e-01 4.543483e+01 7.362566e-01 6.949038e-01
7.578789e-01 4.539087e+01 8.784720e-01 7.568900e-01
8.841921e-01 4.533938e+01 1.017988e+00 8.120338e-01
1.010505e+00 4.528015e+01 1.154001e+00 8.610764e-01
1.136818e+00 4.521391e+01 1.286628e+00 9.051329e-01
1.263132e+00 4.514079e+01 1.415474e+00 9.446749e-01
1.389445e+00 4.506042e+01 1.539496e+00 9.796313e-01
1.515758e+00 4.497348e+01 1.658957e+00 1.010706e+00
1.642071e+00 4.488026e+01 1.773728e+00 1.038235e+00
1.768384e+00 4.478024e+01 1.882626e+00 1.061892e+00
1.894697e+00 4.467401e+01 1.985974e+00 1.082202e+00
2.021011e+00 4.456191e+01 2.083865e+00 1.099487e+00
2.147324e+00 4.444336e+01 2.175202e+00 1.113411e+00
2.273637e+00 4.431868e+01 2.260231e+00 1.124339e+00
2.399950e+00 4.418818e+01 2.339200e+00 1.132586e+00
2.526263e+00 4.405139e+01 2.411382e+00 1.137972e+00
2.652576e+00 4.390823e+01 2.476672e+00 1.140616e+00
2.778889e+00 4.375896e+01 2.535552e+00 1.140884e+00
2.905203e+00 4.360318e+01 2.587652e+00 1.138734e+00
3.031516e+00 4.344045e+01 2.632590e+00 1.134118e+00
3.157829e+00 4.327100e+01 2.670958e+00 1.127399e+00
3.284142e+00 4.309450e+01 2.702692e+00 1.118640e+00
3.410455e+00 4.291025e+01 2.727271e+00 1.107712e+00
3.536768e+00 4.271839e+01 2.745324e+00 1.094952e+00
3.663082e+00 4.251871e+01 2.756997e+00 1.080482e+00
3.789395e+00 4.231038e+01 2.761744e+00 1.064151e+00
3.915708e+00 4.209349e+01 2.760168e+00 1.046249e+00
4.042021e+00 4.186794e+01 2.752589e+00 1.026944e+00
4.168334e+00 4.163294e+01 2.738600e+00 1.006125e+00
4.294647e+00 4.138855e+01 2.718706e+00 9.840187e-01
4.420960e+00 4.113475e+01 2.693329e+00 9.608062e-01
4.547274e+00 4.087110e+01 2.662417e+00 9.364947e-01
4.673587e+00 4.059753e+01 2.626353e+00 9.112398e-01
4.799900e+00 4.031424e+01 2.585721e+00 8.852590e-01
4.926213e+00 4.002106e+01 2.540782e+00 8.586488e-01
5.052526e+00 3.971800e+01 2.491969e+00 8.315589e-01
5.178839e+00 3.940548e+01 2.440052e+00 8.042437e-01
5.305153e+00 3.908367e+01 2.385618e+00 7.768849e-01
5.431466e+00 3.875274e+01 2.329286e+00 7.496681e-01
5.557779e+00 3.841325e+01 2.271984e+00 7.228687e-01
5.684092e+00 3.806572e+01 2.214613e+00 6.967423e-01
5.810405e+00 3.771059e+01 2.158026e+00 6.715189e-01
5.936718e+00 3.734861e+01 2.103314e+00 6.474939e-01
6.063032e+00 3.698049e+01 2.051508e+00 6.249326e-01
6.189345e+00 3.660699e+01 2.003620e+00 6.040847e-01
6.315658e+00 3.622901e+01 1.960681e+00 5.851974e-01
6.441971e+00 3.584744e+01 1.923564e+00 5.684627e-01
6.568284e+00 3.546329e+01 1.893054e+00 5.540410e-01
6.694597e+00 3.507761e+01 1.869741e+00 5.420308e-01
6.820910e+00 3.469138e+01 1.853889e+00 5.324359e-01
6.947224e+00 3.430573e+01 1.845573e+00 5.252068e-01
7.073537e+00 3.392188e+01 1.844596e+00 5.202207e-01
7.199850e+00 3.354080e+01 1.850342e+00 5.172434e-01
7.326163e+00 3.316365e+01 1.862051e+00 5.160098e-01
7.452476e+00 3.279173e+01 1.878866e+00 5.162384e-01
7.578789e+00 3.242594e+01 1.899546e+00 5.175529e-01
7.705103e+00 3.206733e+01 1.922858e+00 5.195924e-01
7.831416e+00 3.171726e+01 1.947741e+00 5.220545e-01
7.957729e+00 3.137649e+01 1.972862e+00 5.245742e-01
8.084042e+00 3.104583e+01 1.996973e+00 5.268205e-01
8.210355e+00 3.072657e+01 2.019252e+00 5.285845e-01
8.336668e+00 3.041931e+01 2.038589e+00 5.295880e-01
8.462981e+00 3.012463e+01 2.053998e+00 5.295940e-01
8.589295e+00 2.984355e+01 2.064993e+00 5.284995e-01
8.715608e+00 2.957653e+01 2.070911e+00 5.261594e-01
8.841921e+00 2.932384e+01 2.071167e+00 5.224522e-01
8.968234e+00 2.908612e+01 2.065532e+00 5.173485e-01
9.094547e+00 2.886373e+01 2.053858e+00 5.108396e-01
9.220860e+00 2.865665e+01 2.035876e+00 5.028869e-01
9.347174e+00 2.846505e+01 2.011656e+00 4.935353e-01
9.473487e+00 2.828918e+01 1.981521e+00 4.828904e-01
9.599800e+00 2.812868e+01 1.945507e+00 4.709843e-01
9.726113e+00 2.798337e+01 1.903914e+00 4.579124e-01
9.852426e+00 2.785328e+01 1.857443e+00 4.438628e-01
9.978739e+00 2.773782e+01 1.806391e+00 4.289224e-01
1.010505e+01 2.763647e+01 1.751284e+00 4.132302e-01
1.023137e+01 2.754905e+01 1.693018e+00 3.970083e-01
1.035768e+01 2.747478e+01 1.632127e+00 3.803885e-01
1.048399e+01 2.741295e+01 1.569273e+00 3.635298e-01
1.061031e+01 2.736312e+01 1.505462e+00 3.466656e-01
1.073662e+01 2.732440e+01 1.441428e+00 3.299619e-01
1.086293e+01 2.729594e+01 1.377849e+00 3.135688e-01
1.098924e+01 2.727713e+01 1.315655e+00 2.976891e-01
1.111556e+01 2.726712e+01 1.255694e+00 2.825030e-01
1.124187e+01 2.726490e+01 1.198590e+00 2.681366e-01
1.136818e+01 2.726972e+01 1.145050e+00 2.547320e-01
1.149450e+01 2.728083e+01 1.095734e+00 2.424180e-01
1.162081e+01 2.729723e+01 1.051020e+00 2.312584e-01
1.174712e+01 2.731813e+01 1.011211e+00 2.212997e-01
1.187344e+01 2.734282e+01 9.764981e-01 2.125631e-01
1.199975e+01 2.737036e+01 9.468171e-01 2.050146e-01
1.212606e+01 2.740006e+01 9.219378e-01 1.985850e-01
1.225238e+01 2.743121e+01 9.014825e-01 1.931754e-01
1.237869e+01 2.746305e+01 8.849252e-01 1.886575e-01
1.250500e+01 2.749499e+01 8.716585e-01 1.848882e-01
1.263132e+01 2.752637e+01 8.609765e-01 1.817071e-01
1.275763e+01 2.755662e+01 8.522076e-01 1.789638e-01
1.288394e+01 2.758525e+01 8.447374e-01 1.765233e-01
1.301026e+01 2.761176e+01 8.379263e-01 1.742479e-01
1.313657e+01 2.763569e+01 8.312210e-01 1.720206e-01
1.326288e+01 2.765671e+01 8.242446e-01 1.697626e-01
1.338919e+01 2.767445e+01 8.166116e-01 1.673952e-01
1.351551e+01 2.768858e+01 8.080101e-01 1.648562e-01
1.364182e+01 2.769889e+01 7.983283e-01 1.621250e-01
1.376813e+01 2.770519e+01 7.874422e-01 1.591791e-01
1.389445e+01 2.770722e+01 7.752520e-01 1.560009e-01
1.402076e+01 2.770492e+01 7.618456e-01 1.526110e-01
1.414707e+01 2.769823e+01 7.472893e-01 1.490254e-01
1.427339e+01 2.768696e+01 7.316693e-01 1.452634e-01
1.439970e+01 2.767118e+01 7.151643e-01 1.413624e-01
1.452601e+01 2.765091e+01 6.979742e-01 1.373634e-01
1.465233e+01 2.762609e+01 6.802718e-01 1.333012e-01
1.477864e+01 2.759680e+01 6.623003e-01 1.292238e-01
1.490495e+01 2.756317e+01 6.442943e-01 1.251768e-01
1.503127e+01 2.752524e+01 6.264776e-01 1.212028e-01
1.515758e+01 2.748308e+01 6.090971e-01 1.173482e-01
1.528389e+01 2.743692e+01 5.923513e-01 1.136494e-01
1.541021e+01 2.738682e+01 5.764714e-01 1.101484e-01
1.553652e+01 2.733292e+01 5.616341e-01 1.068763e-01
1.566283e+01 2.727542e+01 5.479872e-01 1.038580e-01
1.578914e+01 2.721449e+01 5.356278e-01 1.011087e-01
1.591546e+01 2.715022e+01 5.246897e-01 9.865015e-02
1.604177e+01 2.708288e+01 5.151538e-01 9.647516e-02
1.616808e+01 2.701259e+01 5.070433e-01 9.458462e-02
1.629440e+01 2.693953e+01 5.003194e-01 9.296789e-02
1.642071e+01 2.686389e+01 4.948976e-01 9.160604e-02
1.654702e+01 2.678587e+01 4.906293e-01 9.046869e-02
1.667334e+01 2.670559e+01 4.874341e-01 8.953842e-02
1.679965e+01 2.662328e+01 4.851168e-01 8.877711e-02
1.692596e+01 2.653907e+01 4.835328e-01 8.815644e-02
1.705228e+01 2.645316e+01 4.825115e-01 8.764381e-02
1.717859e+01 2.636570e+01 4.819021e-01 8.721071e-02
1.730490e+01 2.627687e+01 4.815475e-01 8.682790e-02
1.743122e+01 2.618680e+01 4.813252e-01 8.647280e-02
1.755753e+01 2.609568e+01 4.810983e-01 8.612056e-02
1.768384e+01 2.600364e+01 4.807935e-01 8.575808e-02
1.781016e+01 2.591084e+01 4.803309e-01 8.537121e-02
1.793647e+01 2.581743e+01 4.796254e-01 8.494513e-02
1.806278e+01 2.572354e+01 4.786713e-01 8.447921e-02
1.818909e+01 2.562929e+01 4.774585e-01 8.397207e-02
1.831541e+01 2.553487e+01 4.759353e-01 8.341504e-02
1.844172e+01 2.544037e+01 4.741548e-01 8.281789e-02
1.856803e+01 2.534590e+01 4.721660e-01 8.218953e-02
1.869435e+01 2.525165e+01 4.699469e-01 8.152642e-02
1.882066e+01 2.515769e+01 4.675824e-01 8.084357e-02
1.894697e+01 2.506412e+01 4.651496e-01 8.015442e-02
1.907329e+01 2.497110e+01 4.626607e-01 7.946111e-02
1.919960e+01 2.487873e+01 4.601896e-01 7.877629e-02
1.932591e+01 2.478706e+01 4.578191e-01 7.811396e-02
1.945223e+01 2.469624e+01 4.555794e-01 7.747904e-02
1.957854e+01 2.460637e+01 4.535000e-01 7.687620e-02
1.970485e+01 2.451749e+01 4.516556e-01 7.631775e-02
1.983117e+01 2.442971e+01 4.500547e-01 7.580466e-02
1.995748e+01 2.434312e+01 4.486945e-01 7.533602e-02
2.008379e+01 2.425777e+01 4.475973e-01 7.491509e-02
2.021011e+01 2.417370e+01 4.467534e-01 7.453982e-02
2.033642e+01 2.409102e+01 4.461116e-01 7.420122e-02
2.046273e+01 2.400973e+01 4.456599e-01 7.389695e-02
2.058904e+01 2.392987e+01 4.453558e-01 7.361966e-02
2.071536e+01 2.385151e+01 4.451263e-01 7.335705e-02
2.084167e+01 2.377464e+01 4.449328e-01 7.310261e-02
2.096798e+01 2.369927e+01 4.447127e-01 7.284604e-02
2.109430e+01 2.362542e+01 4.444034e-01 7.257710e-02
2.122061e+01 2.355308e+01 4.439453e-01 7.228619e-02
2.134692e+01 2.348223e+01 4.432924e-01 7.196601e-02
2.147324e+01 2.341285e+01 4.423838e-01 7.160696e-02
2.159955e+01 2.334491e+01 4.411803e-01 7.120304e-02
2.172586e+01 2.327839e+01 4.396452e-01 7.074872e-02
2.185218e+01 2.321322e+01 4.377674e-01 7.024264e-02
2.197849e+01 2.314936e+01 4.355335e-01 6.968310e-02
2.210480e+01 2.308674e+01 4.329431e-01 6.907045e-02
2.223112e+01 2.302530e+01 4.300050e-01 6.840655e-02
2.235743e+01 2.296494e+01 4.267269e-01 6.769302e-02
2.248374e+01 2.290560e+01 4.231445e-01 6.693591e-02
2.261006e+01 2.284720e+01 4.192958e-01 6.614157e-02
2.273637e+01 2.278965e+01 4.152129e-01 6.531532e-02
2.286268e+01 2.273287e+01 4.109483e-01 6.446566e-02
2.298899e+01 2.267678e+01 4.065640e-01 6.360242e-02
2.311531e+01 2.262127e+01 4.021070e-01 6.273307e-02
2.324162e+01 2.256625e+01 3.976496e-01 6.186886e-02
2.336793e+01 2.251163e+01 3.932727e-01 6.102228e-02
2.349425e+01 2.245734e+01 3.890326e-01 6.020188e-02
2.362056e+01 2.240327e+01 3.849901e-01 5.941680e-02
2.374687e+01 2.234936e+01 3.812197e-01 5.867821e-02
2.387319e+01 2.229553e+01 3.777791e-01 5.799459e-02
2.399950e+01 2.224167e+01 3.747142e-01 5.737250e-02
2.412581e+01 2.218776e+01 3.720856e-01 5.682070e-02
2.425213e+01 2.213372e+01 3.699352e-01 5.634502e-02
2.437844e+01 2.207947e+01 3.682870e-01 5.594847e-02
2.450475e+01 2.202498e+01 3.671819e-01 5.563664e-02
2.463107e+01 2.197021e+01 3.666444e-01 5.541255e-02
2.475738e+01 2.191509e+01 3.666713e-01 5.527508e-02
2.488369e+01 2.185960e+01 3.672766e-01 5.522563e-02
2.501001e+01 2.180373e+01 3.684630e-01 5.526393e-02
2.513632e+01 2.174743e+01 3.702109e-01 5.538640e-02
2.526263e+01 2.169068e+01 3.725111e-01 5.559102e-02
2.538894e+01 2.163348e+01 3.753503e-01 5.587522e-02
2.551526e+01 2.157582e+01 3.787007e-01 5.623424e-02
2.564157e+01 2.151768e+01 3.825365e-01 5.666375e-02
2.576788e+01 2.145907e+01 3.868326e-01 5.715951e-02
2.589420e+01 2.139999e+01 3.915612e-01 5.771693e-02
2.602051e+01 2.134044e+01 3.966976e-01 5.833194e-02
2.614682e+01 2.128041e+01 4.022157e-01 5.900032e-02
2.627314e+01 2.121993e+01 4.080876e-01 5.971759e-02
2.639945e+01 2.115899e+01 4.142854e-01 6.047932e-02
2.652576e+01 2.109760e+01 4.207874e-01 6.128209e-02
2.665208e+01 2.103576e+01 4.275819e-01 6.212389e-02
2.677839e+01 2.097348e+01 4.346475e-01 6.300134e-02
2.690470e+01 2.091075e+01 4.419621e-01 6.391101e-02
2.703102e+01 2.084760e+01 4.495080e-01 6.485016e-02
2.715733e+01 2.078400e+01 4.572810e-01 6.581796e-02
2.728364e+01 2.071995e+01 4.652741e-01 6.681323e-02
2.740995e+01 2.065544e+01 4.734712e-01 6.783350e-02
2.753627e+01 2.059047e+01 4.818626e-01 6.887719e-02
2.766258e+01 2.052502e+01 4.904381e-01 6.994273e-02
2.778889e+01 2.045906e+01 4.992046e-01 7.103097e-02
2.791521e+01 2.039258e+01 5.081579e-01 7.214114e-02
2.804152e+01 2.032553e+01 5.172845e-01 7.327123e-02
2.816783e+01 2.025791e+01 5.265750e-01 7.441977e-02
2.829415e+01 2.018966e+01 5.360320e-01 7.558702e-02
2.842046e+01 2.012073e+01 5.456648e-01 7.677417e-02
2.854677e+01 2.005108e+01 5.554552e-01 7.797857e-02
2.867309e+01 1.998067e+01 5.653954e-01 7.919902e-02
2.879940e+01 1.990944e+01 5.754788e-01 8.043450e-02
2.892571e+01 1.983731e+01 5.857135e-01 8.168606e-02
2.905203e+01 1.976422e+01 5.960908e-01 8.295240e-02
2.917834e+01 1.969011e+01 6.065930e-01 8.423098e-02
2.930465e+01 1.961489e+01 6.172033e-01 8.551941e-02
2.943097e+01 1.953851e+01 6.279279e-01 8.681851e-02
2.955728e+01 1.946084e+01 6.387597e-01 8.812722e-02
2.968359e+01 1.938179e+01 6.496794e-01 8.944285e-02
2.980990e+01 1.930132e+01 6.606661e-01 9.076252e-02
2.993622e+01 1.921931e+01 6.717126e-01 9.208519e-02
3.006253e+01 1.913562e+01 6.828125e-01 9.341002e-02
3.018884e+01 1.905019e+01 6.939503e-01 9.473487e-02
3.031516e+01 1.896291e+01 7.051056e-01 9.605700e-02
3.044147e+01 1.887365e+01 7.162451e-01 9.737189e-02
3.056778e+01 1.878232e+01 7.273839e-01 9.868167e-02
3.069410e+01 1.868879e+01 7.385052e-01 9.998409e-02
3.082041e+01 1.859294e+01 7.495591e-01 1.012725e-01
3.094672e+01 1.849468e+01 7.605500e-01 1.025475e-01
3.107304e+01 1.839391e+01 7.714747e-01 1.038089e-01
3.119935e+01 1.829043e+01 7.822955e-01 1.050516e-01
3.132566e+01 1.818418e+01 7.930028e-01 1.062746e-01
3.145198e+01 1.807509e+01 8.035900e-01 1.074770e-01
3.157829e+01 1.796298e+01 8.140253e-01 1.086547e-01
3.170460e+01 1.784774e+01 8.243029e-01 1.098071e-01
3.183092e+01 1.772929e+01 8.344309e-01 1.109355e-01
3.195723e+01 1.760755e+01 8.443603e-01 1.120335e-01
3.208354e+01 1.748237e+01 8.540785e-01 1.130997e-01
3.220985e+01 1.735367e+01 8.636156e-01 1.141382e-01
3.233617e+01 1.722139e+01 8.729405e-01 1.151450e-01
3.246248e+01 1.708540e+01 8.820182e-01 1.161158e-01
3.258879e+01 1.694568e+01 8.908692e-01 1.170535e-01
3.271511e+01 1.680215e+01 8.994990e-01 1.179591e-01
3.284142e+01 1.665469e+01 9.078646e-01 1.188269e-01
3.296773e+01 1.650332e+01 9.159888e-01 1.196604e-01
3.309405e+01 1.634801e+01 9.238822e-01 1.204610e-01
3.322036e+01 1.618865e+01 9.314937e-01 1.212223e-01
3.334667e+01 1.602525e+01 9.388679e-01 1.219503e-01
3.347299e+01 1.585786e+01 9.460187e-01 1.226471e-01
3.359930e+01 1.568643e+01 9.529056e-01 1.233075e-01
3.372561e+01 1.551096e+01 9.595641e-01 1.239364e-01
3.385193e+01 1.533149e+01 9.660127e-01 1.245363e-01
3.397824e+01 1.514806e+01 9.722454e-01 1.251066e-01
3.410455e+01 1.496073e+01 9.782773e-01 1.256494e-01
3.423087e+01 1.476953e+01 9.841401e-01 1.261690e-01
3.435718e+01 1.457453e+01 9.898429e-01 1.266667e-01
3.448349e+01 1.437582e+01 9.953900e-01 1.271430e-01
3.460980e+01 1.417352e+01 1.000831e+00 1.276045e-01
3.473612e+01 1.396769e+01 1.006180e+00 1.280530e-01
3.486243e+01 1.375845e+01 1.011438e+00 1.284888e-01
3.498874e+01 1.354596e+01 1.016663e+00 1.289192e-01
3.511506e+01 1.333036e+01 1.021879e+00 1.293474e-01
3.524137e+01 1.311174e+01 1.027084e+00 1.297730e-01
3.536768e+01 1.289028e+01 1.032321e+00 1.302016e-01
3.549400e+01 1.266618e+01 1.037622e+00 1.306371e-01
3.562031e+01 1.243958e+01 1.043005e+00 1.310818e-01
3.574662e+01 1.221065e+01 1.048480e+00 1.315368e-01
3.587294e+01 1.197961e+01 1.054078e+00 1.320061e-01
3.599925e+01 1.174664e+01 1.059818e+00 1.324920e-01
3.612556e+01 1.151195e+01 1.065717e+00 1.329963e-01
3.625188e+01 1.127573e+01 1.071764e+00 1.335177e-01
3.637819e+01 1.103820e+01 1.077976e+00 1.340582e-01
3.650450e+01 1.079958e+01 1.084360e+00 1.346186e-01
3.663082e+01 1.056009e+01 1.090917e+00 1.351990e-01
3.675713e+01 1.031995e+01 1.097613e+00 1.357948e-01
3.688344e+01 1.007939e+01 1.104452e+00 1.364067e-01
3.700975e+01 9.838634e+00 1.111418e+00 1.370327e-01
3.713607e+01 9.597909e+00 1.118477e+00 1.376683e-01
3.726238e+01 9.357453e+00 1.125595e+00 1.383094e-01
3.738869e+01 9.117489e+00 1.132738e+00 1.389518e-01
3.751501e+01 8.878232e+00 1.139868e+00 1.395908e-01
3.764132e+01 8.639940e+00 1.146936e+00 1.402206e-01
3.776763e+01 8.402829e+00 1.153882e+00 1.408336e-01
3.789395e+01 8.167091e+00 1.160652e+00 1.414236e-01
3.802026e+01 7.932973e+00 1.167196e+00 1.419845e-01
3.814657e+01 7.700710e+00 1.173443e+00 1.425079e-01
3.827289e+01 7.470472e+00 1.179317e+00 1.429848e-01
3.839920e+01 7.242467e+00 1.184757e+00 1.434078e-01
3.852551e+01 7.016926e+00 1.189703e+00 1.437702e-01
3.865183e+01 6.794038e+00 1.194064e+00 1.440613e-01
3.877814e+01 6.573956e+00 1.197775e+00 1.442735e-01
3.890445e+01 6.356891e+00 1.200777e+00 1.444001e-01
3.903077e+01 6.143012e+00 1.202997e+00 1.444328e-01
3.915708e+01 5.932463e+00 1.204361e+00 1.443631e-01
3.928339e+01 5.725437e+00 1.204829e+00 1.441868e-01
3.940970e+01 5.522025e+00 1.204326e+00 1.438955e-01
3.953602e+01 5.322376e+00 1.202797e+00 1.434831e-01
3.966233e+01 5.126670e+00 1.200234e+00 1.429492e-01
3.978864e+01 4.934950e+00 1.196564e+00 1.422857e-01
3.991496e+01 4.747320e+00 1.191738e+00 1.414874e-01
4.004127e+01 4.563930e+00 1.185777e+00 1.405575e-01
4.016758e+01 4.384846e+00 1.178651e+00 1.394929e-01
4.029390e+01 4.210064e+00 1.170317e+00 1.382894e-01
4.042021e+01 4.039703e+00 1.160789e+00 1.369489e-01
4.054652e+01 3.873855e+00 1.150109e+00 1.354774e-01
4.067284e+01 3.712473e+00 1.138248e+00 1.338719e-01
4.079915e+01 3.555579e+00 1.125211e+00 1.321336e-01
4.092546e+01 3.403258e+00 1.111088e+00 1.302736e-01
4.105178e+01 3.255502e+00 1.095890e+00 1.282938e-01
4.117809e+01 3.112217e+00 1.079620e+00 1.261952e-01
4.130440e+01 2.973484e+00 1.062381e+00 1.239901e-01
4.143072e+01 2.839267e+00 1.044203e+00 1.216826e-01
4.155703e+01 2.709495e+00 1.025147e+00 1.192803e-01
4.168334e+01 2.584156e+00 1.005294e+00 1.167929e-01
4.180965e+01 2.463183e+00 9.846938e-01 1.142267e-01
4.193597e+01 2.346568e+00 9.634459e-01 1.115935e-01
4.206228e+01 2.234230e+00 9.415707e-01 1.088958e-01
4.218859e+01 2.126211e+00 9.189430e-01 1.061197e-01
4.231491e+01 2.022484e+00 8.955175e-01 1.032600e-01
4.244122e+01 1.922921e+00 8.716505e-01 1.003583e-01
4.256753e+01 1.827278e+00 8.477196e-01 9.745806e-02
4.269385e+01 1.735462e+00 8.237257e-01 9.455940e-02
4.282016e+01 1.647452e+00 7.997763e-01 9.167463e-02
4.294647e+01 1.563354e+00 7.756567e-01 8.877906e-02
4.307279e+01 1.483139e+00 7.510871e-01 8.584077e-02
4.319910e+01 1.406730e+00 7.261866e-01 8.287350e-02
4.332541e+01 1.333991e+00 7.013604e-01 7.992353e-02
4.345173e+01 1.264637e+00 6.767825e-01 7.701058e-02
4.357804e+01 1.198525e+00 6.525799e-01 7.414889e-02
4.370435e+01 1.135632e+00 6.288512e-01 7.134940e-02
4.383067e+01 1.075847e+00 6.056963e-01 6.862315e-02
4.395698e+01 1.019271e+00 5.826713e-01 6.591959e-02
4.408329e+01 9.660507e-01 5.594850e-01 6.320569e-02
4.420960e+01 9.159257e-01 5.365149e-01 6.052409e-02
4.433592e+01 8.687400e-01 5.137791e-01 5.787665e-02
4.446223e+01 8.242331e-01 4.916404e-01 5.530402e-02
4.458854e+01 7.824121e-01 4.700422e-01 5.279952e-02
4.471486e+01 7.430318e-01 4.492741e-01 5.039533e-02
4.484117e+01 7.059630e-01 4.293722e-01 4.809504e-02
4.496748e+01 6.711403e-01 4.103958e-01 4.590483e-02
4.509380e+01 6.386438e-01 3.920994e-01 4.379682e-02
4.522011e+01 6.082575e-01 3.747012e-01 4.179497e-02
4.534642e+01 5.798754e-01 3.582700e-01 3.990651e-02
4.547274e+01 5.534067e-01 3.428570e-01 3.813662e-02
4.559905e+01 5.287377e-01 3.285481e-01 3.649436e-02
4.572536e+01 5.058834e-01 3.152999e-01 3.497439e-02
4.585168e+01 4.847440e-01 3.030729e-01 3.357178e-02
4.597799e+01 4.652745e-01 2.918629e-01 3.228559e-02
4.610430e+01 4.474315e-01 2.817548e-01 3.112472e-02
4.623062e+01 4.312062e-01 2.726053e-01 3.007283e-02
4.635693e+01 4.165343e-01 2.643881e-01 2.912657e-02
4.648324e+01 4.035836e-01 2.569323e-01 2.826671e-02
4.660955e+01 3.922402e-01 2.502813e-01 2.749766e-02
4.673587e+01 3.824802e-01 2.443811e-01 2.681311e-02
4.686218e+01 3.742229e-01 2.393190e-01 2.622230e-02
4.698849e+01 3.675506e-01 2.350120e-01 2.571574e-02
4.711481e+01 3.623741e-01 2.314273e-01 2.528953e-02
4.724112e+01 3.586952e-01 2.284722e-01 2.493321e-02
4.736743e+01 3.566468e-01 2.259934e-01 2.462978e-02
4.749375e+01 3.562581e-01 2.238237e-01 2.436086e-02
4.762006e+01 3.573700e-01 2.220657e-01 2.413745e-02
4.774637e+01 3.600866e-01 2.206086e-01 2.394732e-02
4.787269e+01 3.643848e-01 2.194187e-01 2.378672e-02
4.799900e+01 3.700453e-01 2.187061e-01 2.367825e-02
4.812531e+01 3.769957e-01 2.185818e-01 2.363372e-02
4.825163e+01 3.851554e-01 2.191288e-01 2.366182e-02
