| lambda |  Flux   |  F_Er   |F_Norm_Er|
| double | double  | double  | double  |
| micron |   Jy    |   Jy    |    Jy   |
  2.36000   6.17000   0.10000   0.10000 
  2.36025   6.17000   0.10000   0.10000 
  2.36050   6.16000   0.10000   0.10000 
  2.36075   6.15000   0.10000   0.10000 
  2.36100   6.14000   0.10000   0.10000 
  2.36125   6.13000   0.10000   0.10000 
  2.36150   6.11000   0.10000   0.10000 
  2.36175   6.09000   0.10000   0.10000 
  2.36200   6.07000   0.10000   0.10000 
  2.36225   6.05000   0.10000   0.10000 
  2.36250   6.03000   0.10000   0.10000 
  2.36275   6.01000   0.10000   0.10000 
  2.36300   6.01000   0.10000   0.10000 
  2.36325   6.01000   0.10000   0.10000 
  2.36350   6.01000   0.10000   0.10000 
  2.36375   6.03000   0.10000   0.10000 
  2.36400   6.05000   0.10000   0.10000 
  2.36425   6.07000   0.10000   0.10000 
  2.36450   6.08000   0.10000   0.10000 
  2.36475   6.10000   0.10000   0.10000 
  2.36500   6.11000   0.10000   0.10000 
  2.36525   6.12000   0.10000   0.10000 
  2.36550   6.13000   0.10000   0.10000 
  2.36575   6.13000   0.10000   0.10000 
  2.36600   6.13000   0.10000   0.10000 
  2.36625   6.13000   0.10000   0.10000 
  2.36650   6.14000   0.10000   0.10000 
  2.36675   6.14000   0.10000   0.10000 
  2.36700   6.13000   0.10000   0.10000 
  2.36725   6.13000   0.10000   0.10000 
  2.36750   6.12000   0.10000   0.10000 
  2.36775   6.10000   0.10000   0.10000 
  2.36800   6.09000   0.10000   0.10000 
  2.36825   6.08000   0.10000   0.10000 
  2.36850   6.06000   0.10000   0.10000 
  2.36875   6.06000   0.10000   0.10000 
  2.36900   6.06000   0.10000   0.10000 
  2.36925   6.07000   0.10000   0.10000 
  2.36950   6.08000   0.10000   0.10000 
  2.36975   6.09000   0.10000   0.10000 
  2.37000   6.11000   0.10000   0.10000 
  2.37025   6.12000   0.10000   0.10000 
  2.37050   6.13000   0.10000   0.10000 
  2.37075   6.13000   0.10000   0.10000 
  2.37100   6.13000   0.10000   0.10000 
  2.37125   6.12000   0.09000   0.09000 
  2.37150   6.12000   0.09000   0.09000 
  2.37175   6.11000   0.09000   0.09000 
  2.37200   6.11000   0.09000   0.09000 
  2.37225   6.12000   0.09000   0.09000 
  2.37250   6.13000   0.09000   0.09000 
  2.37275   6.15000   0.09000   0.09000 
  2.37300   6.17000   0.09000   0.09000 
  2.37325   6.19000   0.09000   0.09000 
  2.37350   6.21000   0.09000   0.09000 
  2.37375   6.24000   0.09000   0.09000 
  2.37400   6.26000   0.09000   0.09000 
  2.37425   6.27000   0.09000   0.09000 
  2.37450   6.28000   0.09000   0.09000 
  2.37475   6.27000   0.09000   0.09000 
  2.37500   6.26000   0.09000   0.09000 
  2.37525   6.25000   0.09000   0.09000 
  2.37550   6.22000   0.09000   0.09000 
  2.37575   6.20000   0.09000   0.09000 
  2.37600   6.18000   0.09000   0.09000 
  2.37625   6.15000   0.09000   0.09000 
  2.37650   6.14000   0.09000   0.09000 
  2.37675   6.13000   0.09000   0.09000 
  2.37700   6.12000   0.09000   0.09000 
  2.37725   6.12000   0.09000   0.09000 
  2.37750   6.12000   0.09000   0.09000 
  2.37775   6.12000   0.09000   0.09000 
  2.37800   6.13000   0.09000   0.09000 
  2.37825   6.13000   0.09000   0.09000 
  2.37850   6.13000   0.09000   0.09000 
  2.37875   6.13000   0.09000   0.09000 
  2.37900   6.12000   0.09000   0.09000 
  2.37925   6.11000   0.09000   0.09000 
  2.37950   6.09000   0.09000   0.09000 
  2.37975   6.08000   0.09000   0.09000 
  2.38000   6.08000   0.09000   0.09000 
  2.38025   6.07000   0.09000   0.09000 
  2.38050   6.08000   0.09000   0.09000 
  2.38075   6.08000   0.09000   0.09000 
  2.38100   6.09000   0.09000   0.09000 
  2.38125   6.11000   0.09000   0.09000 
  2.38150   6.12000   0.09000   0.09000 
  2.38175   6.13000   0.09000   0.09000 
  2.38200   6.15000   0.09000   0.09000 
  2.38225   6.16000   0.09000   0.09000 
  2.38250   6.17000   0.09000   0.09000 
  2.38275   6.19000   0.08000   0.08000 
  2.38300   6.20000   0.08000   0.08000 
  2.38325   6.21000   0.08000   0.08000 
  2.38350   6.22000   0.08000   0.08000 
  2.38375   6.24000   0.08000   0.08000 
  2.38400   6.24000   0.08000   0.08000 
  2.38425   6.25000   0.08000   0.08000 
  2.38450   6.26000   0.08000   0.08000 
  2.38475   6.26000   0.08000   0.08000 
  2.38500   6.27000   0.08000   0.08000 
  2.38525   6.27000   0.08000   0.08000 
  2.38550   6.27000   0.08000   0.08000 
  2.38575   6.27000   0.08000   0.08000 
  2.38600   6.27000   0.08000   0.08000 
  2.38625   6.27000   0.08000   0.08000 
  2.38650   6.27000   0.08000   0.08000 
  2.38675   6.28000   0.08000   0.08000 
  2.38700   6.28000   0.08000   0.08000 
  2.38725   6.28000   0.08000   0.08000 
  2.38750   6.29000   0.08000   0.08000 
  2.38775   6.29000   0.08000   0.08000 
  2.38800   6.29000   0.08000   0.08000 
  2.38825   6.29000   0.08000   0.08000 
  2.38850   6.29000   0.08000   0.08000 
  2.38875   6.29000   0.08000   0.08000 
  2.38900   6.28000   0.08000   0.08000 
  2.38925   6.26000   0.08000   0.08000 
  2.38950   6.25000   0.08000   0.08000 
  2.38975   6.23000   0.08000   0.08000 
  2.39000   6.21000   0.08000   0.08000 
  2.39025   6.19000   0.08000   0.08000 
  2.39050   6.17000   0.08000   0.08000 
  2.39075   6.16000   0.08000   0.08000 
  2.39100   6.15000   0.08000   0.08000 
  2.39125   6.14000   0.08000   0.08000 
  2.39150   6.13000   0.08000   0.08000 
  2.39175   6.12000   0.08000   0.08000 
  2.39200   6.11000   0.08000   0.08000 
  2.39225   6.10000   0.08000   0.08000 
  2.39250   6.09000   0.08000   0.08000 
  2.39275   6.08000   0.08000   0.08000 
  2.39300   6.07000   0.08000   0.08000 
  2.39325   6.07000   0.08000   0.08000 
  2.39350   6.06000   0.07000   0.07000 
  2.39375   6.06000   0.07000   0.07000 
  2.39400   6.06000   0.07000   0.07000 
  2.39425   6.07000   0.07000   0.07000 
  2.39450   6.08000   0.07000   0.07000 
  2.39475   6.09000   0.07000   0.07000 
  2.39500   6.10000   0.07000   0.07000 
  2.39525   6.11000   0.07000   0.07000 
  2.39550   6.12000   0.07000   0.07000 
  2.39575   6.12000   0.07000   0.07000 
  2.39600   6.13000   0.07000   0.07000 
  2.39625   6.12000   0.07000   0.07000 
  2.39650   6.12000   0.07000   0.07000 
  2.39675   6.12000   0.07000   0.07000 
  2.39700   6.11000   0.07000   0.07000 
  2.39725   6.11000   0.07000   0.07000 
  2.39750   6.11000   0.07000   0.07000 
  2.39775   6.11000   0.07000   0.07000 
  2.39800   6.11000   0.07000   0.07000 
  2.39825   6.12000   0.07000   0.07000 
  2.39850   6.13000   0.07000   0.07000 
  2.39875   6.14000   0.07000   0.07000 
  2.39900   6.16000   0.07000   0.07000 
  2.39925   6.17000   0.07000   0.07000 
  2.39950   6.18000   0.07000   0.07000 
  2.39975   6.18000   0.07000   0.07000 
  2.40000   6.18000   0.07000   0.07000 
  2.40025   6.18000   0.07000   0.07000 
  2.40050   6.18000   0.07000   0.07000 
  2.40075   6.18000   0.07000   0.07000 
  2.40100   6.17000   0.07000   0.07000 
  2.40125   6.17000   0.07000   0.07000 
  2.40150   6.18000   0.07000   0.07000 
  2.40175   6.18000   0.07000   0.07000 
  2.40200   6.19000   0.07000   0.07000 
  2.40225   6.20000   0.07000   0.07000 
  2.40250   6.21000   0.07000   0.07000 
  2.40275   6.22000   0.07000   0.07000 
  2.40300   6.24000   0.07000   0.07000 
  2.40325   6.25000   0.07000   0.07000 
  2.40350   6.26000   0.07000   0.07000 
  2.40375   6.27000   0.07000   0.07000 
  2.40400   6.28000   0.07000   0.07000 
  2.40425   6.29000   0.07000   0.07000 
  2.40450   6.29000   0.07000   0.07000 
  2.40475   6.30000   0.07000   0.07000 
  2.40500   6.31000   0.06000   0.06000 
  2.40525   6.31000   0.06000   0.06000 
  2.40550   6.31000   0.06000   0.06000 
  2.40575   6.31000   0.06000   0.06000 
  2.40600   6.31000   0.06000   0.06000 
  2.40625   6.30000   0.06000   0.06000 
  2.40650   6.29000   0.06000   0.06000 
  2.40675   6.28000   0.06000   0.06000 
  2.40700   6.27000   0.06000   0.06000 
  2.40725   6.25000   0.06000   0.06000 
  2.40750   6.24000   0.06000   0.06000 
  2.40775   6.23000   0.06000   0.06000 
  2.40800   6.22000   0.06000   0.06000 
  2.40825   6.21000   0.06000   0.06000 
  2.40850   6.20000   0.06000   0.06000 
  2.40875   6.20000   0.06000   0.06000 
  2.40900   6.20000   0.06000   0.06000 
  2.40925   6.21000   0.06000   0.06000 
  2.40950   6.21000   0.06000   0.06000 
  2.40975   6.22000   0.06000   0.06000 
  2.41000   6.23000   0.06000   0.06000 
  2.41025   6.24000   0.06000   0.06000 
  2.41050   6.25000   0.06000   0.06000 
  2.41075   6.26000   0.06000   0.06000 
  2.41100   6.28000   0.06000   0.06000 
  2.41125   6.29000   0.06000   0.06000 
  2.41150   6.31000   0.06000   0.06000 
  2.41175   6.33000   0.06000   0.06000 
  2.41200   6.35000   0.06000   0.06000 
  2.41225   6.36000   0.06000   0.06000 
  2.41250   6.38000   0.06000   0.06000 
  2.41275   6.40000   0.06000   0.06000 
  2.41300   6.42000   0.06000   0.06000 
  2.41325   6.43000   0.06000   0.06000 
  2.41350   6.44000   0.06000   0.06000 
  2.41375   6.46000   0.06000   0.06000 
  2.41400   6.47000   0.06000   0.06000 
  2.41425   6.48000   0.06000   0.06000 
  2.41450   6.49000   0.06000   0.06000 
  2.41475   6.50000   0.06000   0.06000 
  2.41500   6.50000   0.06000   0.06000 
  2.41525   6.51000   0.06000   0.06000 
  2.41550   6.51000   0.06000   0.06000 
  2.41575   6.50000   0.06000   0.06000 
  2.41600   6.50000   0.06000   0.06000 
  2.41625   6.49000   0.06000   0.06000 
  2.41650   6.49000   0.06000   0.06000 
  2.41675   6.48000   0.06000   0.06000 
  2.41700   6.48000   0.06000   0.06000 
  2.41725   6.47000   0.06000   0.06000 
  2.41750   6.47000   0.06000   0.06000 
  2.41775   6.46000   0.06000   0.06000 
  2.41800   6.46000   0.06000   0.06000 
  2.41825   6.45000   0.06000   0.06000 
  2.41850   6.44000   0.06000   0.06000 
  2.41875   6.43000   0.06000   0.06000 
  2.41900   6.42000   0.06000   0.06000 
  2.41925   6.40000   0.05000   0.05000 
  2.41950   6.38000   0.05000   0.05000 
  2.41975   6.36000   0.05000   0.05000 
  2.42000   6.33000   0.05000   0.05000 
  2.42025   6.31000   0.05000   0.05000 
  2.42050   6.28000   0.05000   0.05000 
  2.42075   6.25000   0.05000   0.05000 
  2.42100   6.22000   0.05000   0.05000 
  2.42125   6.20000   0.05000   0.05000 
  2.42150   6.17000   0.05000   0.05000 
  2.42175   6.16000   0.05000   0.05000 
  2.42200   6.14000   0.05000   0.05000 
  2.42225   6.14000   0.05000   0.05000 
  2.42250   6.14000   0.05000   0.05000 
  2.42275   6.15000   0.05000   0.05000 
  2.42300   6.15000   0.05000   0.05000 
  2.42325   6.16000   0.05000   0.05000 
  2.42350   6.17000   0.05000   0.05000 
  2.42375   6.18000   0.05000   0.05000 
  2.42400   6.19000   0.05000   0.05000 
  2.42425   6.19000   0.05000   0.05000 
  2.42450   6.19000   0.05000   0.05000 
  2.42475   6.19000   0.05000   0.05000 
  2.42500   6.18000   0.05000   0.05000 
  2.42525   6.17000   0.05000   0.05000 
  2.42550   6.15000   0.05000   0.05000 
  2.42575   6.14000   0.05000   0.05000 
  2.42600   6.12000   0.05000   0.05000 
  2.42625   6.10000   0.05000   0.05000 
  2.42650   6.09000   0.05000   0.05000 
  2.42675   6.07000   0.05000   0.05000 
  2.42700   6.06000   0.05000   0.05000 
  2.42725   6.05000   0.05000   0.05000 
  2.42750   6.04000   0.05000   0.05000 
  2.42775   6.03000   0.05000   0.05000 
  2.42800   6.03000   0.05000   0.05000 
  2.42825   6.03000   0.05000   0.05000 
  2.42850   6.02000   0.05000   0.05000 
  2.42875   6.02000   0.05000   0.05000 
  2.42900   6.02000   0.05000   0.05000 
  2.42925   6.03000   0.05000   0.05000 
  2.42950   6.03000   0.05000   0.05000 
  2.42975   6.04000   0.05000   0.05000 
  2.43000   6.05000   0.05000   0.05000 
  2.43025   6.07000   0.05000   0.05000 
  2.43050   6.08000   0.05000   0.05000 
  2.43075   6.10000   0.05000   0.05000 
  2.43100   6.12000   0.05000   0.05000 
  2.43125   6.13000   0.05000   0.05000 
  2.43150   6.15000   0.05000   0.05000 
  2.43175   6.16000   0.05000   0.05000 
  2.43200   6.17000   0.05000   0.05000 
  2.43225   6.18000   0.05000   0.05000 
  2.43250   6.19000   0.05000   0.05000 
  2.43275   6.19000   0.05000   0.05000 
  2.43300   6.19000   0.05000   0.05000 
  2.43325   6.19000   0.05000   0.05000 
  2.43350   6.19000   0.05000   0.05000 
  2.43375   6.19000   0.05000   0.05000 
  2.43400   6.20000   0.05000   0.05000 
  2.43425   6.20000   0.05000   0.05000 
  2.43450   6.20000   0.05000   0.05000 
  2.43475   6.21000   0.05000   0.05000 
  2.43500   6.21000   0.05000   0.05000 
  2.43525   6.22000   0.05000   0.05000 
  2.43550   6.23000   0.05000   0.05000 
  2.43575   6.23000   0.05000   0.05000 
  2.43600   6.23000   0.05000   0.05000 
  2.43625   6.24000   0.05000   0.05000 
  2.43650   6.24000   0.05000   0.05000 
  2.43675   6.23000   0.05000   0.05000 
  2.43700   6.23000   0.05000   0.05000 
  2.43725   6.22000   0.05000   0.05000 
  2.43750   6.21000   0.05000   0.05000 
  2.43775   6.19000   0.05000   0.05000 
  2.43800   6.18000   0.05000   0.05000 
  2.43825   6.17000   0.05000   0.05000 
  2.43850   6.16000   0.05000   0.05000 
  2.43875   6.16000   0.05000   0.05000 
  2.43900   6.15000   0.05000   0.05000 
  2.43925   6.15000   0.05000   0.05000 
  2.43950   6.16000   0.05000   0.05000 
  2.43975   6.16000   0.05000   0.05000 
  2.44000   6.17000   0.05000   0.05000 
  2.44025   6.17000   0.05000   0.05000 
  2.44050   6.18000   0.05000   0.05000 
  2.44075   6.19000   0.05000   0.05000 
  2.44100   6.19000   0.04000   0.04000 
  2.44125   6.19000   0.04000   0.04000 
  2.44150   6.20000   0.04000   0.04000 
  2.44175   6.20000   0.04000   0.04000 
  2.44200   6.21000   0.04000   0.04000 
  2.44225   6.22000   0.04000   0.04000 
  2.44250   6.23000   0.04000   0.04000 
  2.44275   6.24000   0.04000   0.04000 
  2.44300   6.25000   0.04000   0.04000 
  2.44325   6.27000   0.04000   0.04000 
  2.44350   6.28000   0.04000   0.04000 
  2.44375   6.30000   0.04000   0.04000 
  2.44400   6.31000   0.04000   0.04000 
  2.44425   6.32000   0.04000   0.04000 
  2.44450   6.33000   0.04000   0.04000 
  2.44475   6.33000   0.04000   0.04000 
  2.44500   6.33000   0.04000   0.04000 
  2.44525   6.32000   0.04000   0.04000 
  2.44550   6.31000   0.04000   0.04000 
  2.44575   6.30000   0.04000   0.04000 
  2.44600   6.29000   0.04000   0.04000 
  2.44625   6.28000   0.04000   0.04000 
  2.44650   6.28000   0.04000   0.04000 
  2.44675   6.27000   0.04000   0.04000 
  2.44700   6.27000   0.04000   0.04000 
  2.44725   6.28000   0.04000   0.04000 
  2.44750   6.29000   0.04000   0.04000 
  2.44775   6.30000   0.04000   0.04000 
  2.44800   6.31000   0.04000   0.04000 
  2.44825   6.32000   0.04000   0.04000 
  2.44850   6.32000   0.04000   0.04000 
  2.44875   6.33000   0.04000   0.04000 
  2.44900   6.33000   0.04000   0.04000 
  2.44925   6.33000   0.04000   0.04000 
  2.44950   6.33000   0.04000   0.04000 
  2.44975   6.33000   0.04000   0.04000 
  2.45000   6.33000   0.04000   0.04000 
  2.45025   6.32000   0.04000   0.04000 
  2.45050   6.32000   0.04000   0.04000 
  2.45075   6.33000   0.04000   0.04000 
  2.45100   6.33000   0.04000   0.04000 
  2.45125   6.34000   0.04000   0.04000 
  2.45150   6.36000   0.04000   0.04000 
  2.45175   6.37000   0.04000   0.04000 
  2.45200   6.39000   0.04000   0.04000 
  2.45225   6.41000   0.04000   0.04000 
  2.45250   6.43000   0.04000   0.04000 
  2.45275   6.45000   0.04000   0.04000 
  2.45300   6.46000   0.04000   0.04000 
  2.45325   6.47000   0.04000   0.04000 
  2.45350   6.47000   0.04000   0.04000 
  2.45375   6.46000   0.04000   0.04000 
  2.45400   6.46000   0.04000   0.04000 
  2.45425   6.44000   0.04000   0.04000 
  2.45450   6.42000   0.04000   0.04000 
  2.45475   6.40000   0.04000   0.04000 
  2.45500   6.38000   0.04000   0.04000 
  2.45525   6.36000   0.04000   0.04000 
  2.45550   6.35000   0.04000   0.04000 
  2.45575   6.33000   0.04000   0.04000 
  2.45600   6.32000   0.04000   0.04000 
  2.45625   6.32000   0.04000   0.04000 
  2.45650   6.31000   0.04000   0.04000 
  2.45675   6.31000   0.04000   0.04000 
  2.45700   6.31000   0.04000   0.04000 
  2.45725   6.31000   0.04000   0.04000 
  2.45750   6.31000   0.04000   0.04000 
  2.45775   6.31000   0.04000   0.04000 
  2.45800   6.31000   0.04000   0.04000 
  2.45825   6.32000   0.04000   0.04000 
  2.45850   6.32000   0.04000   0.04000 
  2.45875   6.33000   0.04000   0.04000 
  2.45900   6.33000   0.04000   0.04000 
  2.45925   6.34000   0.04000   0.04000 
  2.45950   6.35000   0.04000   0.04000 
  2.45975   6.36000   0.04000   0.04000 
  2.46000   6.37000   0.04000   0.04000 
  2.46025   6.37000   0.04000   0.04000 
  2.46050   6.37000   0.04000   0.04000 
  2.46075   6.37000   0.04000   0.04000 
  2.46100   6.37000   0.04000   0.04000 
  2.46125   6.37000   0.04000   0.04000 
  2.46150   6.36000   0.04000   0.04000 
  2.46175   6.35000   0.04000   0.04000 
  2.46200   6.34000   0.04000   0.04000 
  2.46225   6.33000   0.04000   0.04000 
  2.46250   6.32000   0.04000   0.04000 
  2.46275   6.31000   0.04000   0.04000 
  2.46300   6.31000   0.04000   0.04000 
  2.46325   6.30000   0.04000   0.04000 
  2.46350   6.30000   0.04000   0.04000 
  2.46375   6.29000   0.04000   0.04000 
  2.46400   6.29000   0.04000   0.04000 
  2.46425   6.29000   0.04000   0.04000 
  2.46450   6.29000   0.04000   0.04000 
  2.46475   6.29000   0.04000   0.04000 
  2.46500   6.29000   0.04000   0.04000 
  2.46525   6.29000   0.04000   0.04000 
  2.46550   6.29000   0.04000   0.04000 
  2.46575   6.29000   0.04000   0.04000 
  2.46600   6.30000   0.04000   0.04000 
  2.46625   6.30000   0.04000   0.04000 
  2.46650   6.30000   0.04000   0.04000 
  2.46675   6.31000   0.04000   0.04000 
  2.46700   6.31000   0.04000   0.04000 
  2.46725   6.32000   0.04000   0.04000 
  2.46750   6.33000   0.04000   0.04000 
  2.46775   6.34000   0.04000   0.04000 
  2.46800   6.36000   0.04000   0.04000 
  2.46825   6.37000   0.04000   0.04000 
  2.46850   6.38000   0.04000   0.04000 
  2.46875   6.39000   0.04000   0.04000 
  2.46900   6.40000   0.04000   0.04000 
  2.46925   6.40000   0.04000   0.04000 
  2.46950   6.41000   0.04000   0.04000 
  2.46975   6.41000   0.04000   0.04000 
  2.47000   6.42000   0.04000   0.04000 
  2.47025   6.42000   0.04000   0.04000 
  2.47050   6.43000   0.04000   0.04000 
  2.47075   6.44000   0.04000   0.04000 
  2.47100   6.45000   0.04000   0.04000 
  2.47125   6.46000   0.04000   0.04000 
  2.47150   6.47000   0.04000   0.04000 
  2.47175   6.48000   0.04000   0.04000 
  2.47200   6.49000   0.04000   0.04000 
  2.47225   6.50000   0.04000   0.04000 
  2.47250   6.50000   0.04000   0.04000 
  2.47275   6.51000   0.04000   0.04000 
  2.47300   6.51000   0.04000   0.04000 
  2.47325   6.52000   0.04000   0.04000 
  2.47350   6.52000   0.04000   0.04000 
  2.47375   6.51000   0.04000   0.04000 
  2.47400   6.50000   0.04000   0.04000 
  2.47425   6.49000   0.04000   0.04000 
  2.47450   6.48000   0.04000   0.04000 
  2.47475   6.46000   0.04000   0.04000 
  2.47500   6.45000   0.04000   0.04000 
  2.47525   6.44000   0.04000   0.04000 
  2.47550   6.43000   0.04000   0.04000 
  2.47575   6.42000   0.04000   0.04000 
  2.47600   6.41000   0.04000   0.04000 
  2.47625   6.41000   0.04000   0.04000 
  2.47650   6.40000   0.04000   0.04000 
  2.47675   6.40000   0.04000   0.04000 
  2.47700   6.40000   0.04000   0.04000 
  2.47725   6.39000   0.04000   0.04000 
  2.47750   6.39000   0.04000   0.04000 
  2.47775   6.39000   0.04000   0.04000 
  2.47800   6.38000   0.04000   0.04000 
  2.47825   6.38000   0.04000   0.04000 
  2.47850   6.38000   0.04000   0.04000 
  2.47875   6.37000   0.04000   0.04000 
  2.47900   6.37000   0.04000   0.04000 
  2.47925   6.37000   0.04000   0.04000 
  2.47950   6.36000   0.04000   0.04000 
  2.47975   6.36000   0.04000   0.04000 
  2.48000   6.36000   0.04000   0.04000 
  2.48025   6.35000   0.04000   0.04000 
  2.48050   6.35000   0.04000   0.04000 
  2.48075   6.35000   0.04000   0.04000 
