| lambda |  Flux   |  F_Er   |F_Norm_Er|
| double | double  | double  | double  |
| micron |   Jy    |   Jy    |    Jy   |
  2.35950  11.74000   0.19000   0.19000 
  2.35975  11.74000   0.19000   0.19000 
  2.36000  11.75000   0.19000   0.19000 
  2.36025  11.77000   0.19000   0.19000 
  2.36050  11.79000   0.19000   0.19000 
  2.36075  11.82000   0.19000   0.19000 
  2.36100  11.87000   0.19000   0.19000 
  2.36125  11.92000   0.19000   0.19000 
  2.36150  11.97000   0.19000   0.19000 
  2.36175  12.03000   0.19000   0.19000 
  2.36200  12.09000   0.19000   0.19000 
  2.36225  12.14000   0.19000   0.19000 
  2.36250  12.20000   0.19000   0.19000 
  2.36275  12.25000   0.19000   0.19000 
  2.36300  12.30000   0.19000   0.19000 
  2.36325  12.34000   0.19000   0.19000 
  2.36350  12.37000   0.19000   0.19000 
  2.36375  12.39000   0.19000   0.19000 
  2.36400  12.41000   0.19000   0.19000 
  2.36425  12.41000   0.19000   0.19000 
  2.36450  12.40000   0.19000   0.19000 
  2.36475  12.38000   0.19000   0.19000 
  2.36500  12.36000   0.19000   0.19000 
  2.36525  12.33000   0.19000   0.19000 
  2.36550  12.29000   0.19000   0.19000 
  2.36575  12.27000   0.19000   0.19000 
  2.36600  12.24000   0.19000   0.19000 
  2.36625  12.23000   0.19000   0.19000 
  2.36650  12.23000   0.18000   0.18000 
  2.36675  12.23000   0.18000   0.18000 
  2.36700  12.25000   0.18000   0.18000 
  2.36725  12.28000   0.18000   0.18000 
  2.36750  12.32000   0.18000   0.18000 
  2.36775  12.36000   0.18000   0.18000 
  2.36800  12.42000   0.18000   0.18000 
  2.36825  12.49000   0.18000   0.18000 
  2.36850  12.55000   0.18000   0.18000 
  2.36875  12.63000   0.18000   0.18000 
  2.36900  12.70000   0.18000   0.18000 
  2.36925  12.76000   0.18000   0.18000 
  2.36950  12.82000   0.18000   0.18000 
  2.36975  12.88000   0.18000   0.18000 
  2.37000  12.92000   0.18000   0.18000 
  2.37025  12.95000   0.18000   0.18000 
  2.37050  12.98000   0.18000   0.18000 
  2.37075  13.00000   0.18000   0.18000 
  2.37100  13.02000   0.18000   0.18000 
  2.37125  13.04000   0.18000   0.18000 
  2.37150  13.05000   0.18000   0.18000 
  2.37175  13.07000   0.18000   0.18000 
  2.37200  13.09000   0.18000   0.18000 
  2.37225  13.12000   0.18000   0.18000 
  2.37250  13.15000   0.18000   0.18000 
  2.37275  13.18000   0.18000   0.18000 
  2.37300  13.21000   0.18000   0.18000 
  2.37325  13.24000   0.18000   0.18000 
  2.37350  13.27000   0.18000   0.18000 
  2.37375  13.30000   0.18000   0.18000 
  2.37400  13.33000   0.18000   0.18000 
  2.37425  13.34000   0.18000   0.18000 
  2.37450  13.35000   0.18000   0.18000 
  2.37475  13.36000   0.18000   0.18000 
  2.37500  13.35000   0.18000   0.18000 
  2.37525  13.34000   0.18000   0.18000 
  2.37550  13.34000   0.18000   0.18000 
  2.37575  13.32000   0.18000   0.18000 
  2.37600  13.31000   0.18000   0.18000 
  2.37625  13.31000   0.18000   0.18000 
  2.37650  13.30000   0.17000   0.17000 
  2.37675  13.30000   0.17000   0.17000 
  2.37700  13.31000   0.17000   0.17000 
  2.37725  13.32000   0.17000   0.17000 
  2.37750  13.34000   0.17000   0.17000 
  2.37775  13.35000   0.17000   0.17000 
  2.37800  13.37000   0.17000   0.17000 
  2.37825  13.39000   0.17000   0.17000 
  2.37850  13.41000   0.17000   0.17000 
  2.37875  13.41000   0.17000   0.17000 
  2.37900  13.42000   0.17000   0.17000 
  2.37925  13.41000   0.17000   0.17000 
  2.37950  13.40000   0.17000   0.17000 
  2.37975  13.38000   0.17000   0.17000 
  2.38000  13.36000   0.17000   0.17000 
  2.38025  13.33000   0.17000   0.17000 
  2.38050  13.30000   0.17000   0.17000 
  2.38075  13.28000   0.17000   0.17000 
  2.38100  13.25000   0.17000   0.17000 
  2.38125  13.22000   0.17000   0.17000 
  2.38150  13.19000   0.17000   0.17000 
  2.38175  13.16000   0.17000   0.17000 
  2.38200  13.14000   0.17000   0.17000 
  2.38225  13.11000   0.17000   0.17000 
  2.38250  13.09000   0.17000   0.17000 
  2.38275  13.06000   0.17000   0.17000 
  2.38300  13.04000   0.17000   0.17000 
  2.38325  13.02000   0.17000   0.17000 
  2.38350  12.99000   0.17000   0.17000 
  2.38375  12.97000   0.17000   0.17000 
  2.38400  12.94000   0.17000   0.17000 
  2.38425  12.92000   0.17000   0.17000 
  2.38450  12.89000   0.17000   0.17000 
  2.38475  12.86000   0.17000   0.17000 
  2.38500  12.83000   0.16000   0.16000 
  2.38525  12.79000   0.16000   0.16000 
  2.38550  12.75000   0.16000   0.16000 
  2.38575  12.71000   0.16000   0.16000 
  2.38600  12.67000   0.16000   0.16000 
  2.38625  12.63000   0.16000   0.16000 
  2.38650  12.59000   0.16000   0.16000 
  2.38675  12.56000   0.16000   0.16000 
  2.38700  12.53000   0.16000   0.16000 
  2.38725  12.51000   0.16000   0.16000 
  2.38750  12.50000   0.16000   0.16000 
  2.38775  12.49000   0.16000   0.16000 
  2.38800  12.48000   0.16000   0.16000 
  2.38825  12.47000   0.16000   0.16000 
  2.38850  12.46000   0.16000   0.16000 
  2.38875  12.45000   0.16000   0.16000 
  2.38900  12.44000   0.16000   0.16000 
  2.38925  12.43000   0.16000   0.16000 
  2.38950  12.42000   0.16000   0.16000 
  2.38975  12.41000   0.16000   0.16000 
  2.39000  12.41000   0.16000   0.16000 
  2.39025  12.41000   0.16000   0.16000 
  2.39050  12.42000   0.16000   0.16000 
  2.39075  12.43000   0.16000   0.16000 
  2.39100  12.43000   0.16000   0.16000 
  2.39125  12.44000   0.16000   0.16000 
  2.39150  12.45000   0.16000   0.16000 
  2.39175  12.46000   0.16000   0.16000 
  2.39200  12.47000   0.16000   0.16000 
  2.39225  12.49000   0.16000   0.16000 
  2.39250  12.50000   0.15000   0.15000 
  2.39275  12.52000   0.15000   0.15000 
  2.39300  12.54000   0.15000   0.15000 
  2.39325  12.56000   0.15000   0.15000 
  2.39350  12.57000   0.15000   0.15000 
  2.39375  12.58000   0.15000   0.15000 
  2.39400  12.58000   0.15000   0.15000 
  2.39425  12.57000   0.15000   0.15000 
  2.39450  12.56000   0.15000   0.15000 
  2.39475  12.54000   0.15000   0.15000 
  2.39500  12.52000   0.15000   0.15000 
  2.39525  12.50000   0.15000   0.15000 
  2.39550  12.48000   0.15000   0.15000 
  2.39575  12.47000   0.15000   0.15000 
  2.39600  12.46000   0.15000   0.15000 
  2.39625  12.46000   0.15000   0.15000 
  2.39650  12.46000   0.15000   0.15000 
  2.39675  12.47000   0.15000   0.15000 
  2.39700  12.48000   0.15000   0.15000 
  2.39725  12.50000   0.15000   0.15000 
  2.39750  12.51000   0.15000   0.15000 
  2.39775  12.52000   0.15000   0.15000 
  2.39800  12.54000   0.15000   0.15000 
  2.39825  12.55000   0.15000   0.15000 
  2.39850  12.56000   0.15000   0.15000 
  2.39875  12.57000   0.15000   0.15000 
  2.39900  12.58000   0.15000   0.15000 
  2.39925  12.59000   0.15000   0.15000 
  2.39950  12.60000   0.15000   0.15000 
  2.39975  12.60000   0.14000   0.14000 
  2.40000  12.60000   0.14000   0.14000 
  2.40025  12.59000   0.14000   0.14000 
  2.40050  12.58000   0.14000   0.14000 
  2.40075  12.57000   0.14000   0.14000 
  2.40100  12.56000   0.14000   0.14000 
  2.40125  12.54000   0.14000   0.14000 
  2.40150  12.53000   0.14000   0.14000 
  2.40175  12.52000   0.14000   0.14000 
  2.40200  12.51000   0.14000   0.14000 
  2.40225  12.51000   0.14000   0.14000 
  2.40250  12.52000   0.14000   0.14000 
  2.40275  12.55000   0.14000   0.14000 
  2.40300  12.58000   0.14000   0.14000 
  2.40325  12.62000   0.14000   0.14000 
  2.40350  12.66000   0.14000   0.14000 
  2.40375  12.71000   0.14000   0.14000 
  2.40400  12.75000   0.14000   0.14000 
  2.40425  12.79000   0.14000   0.14000 
  2.40450  12.82000   0.14000   0.14000 
  2.40475  12.84000   0.14000   0.14000 
  2.40500  12.85000   0.14000   0.14000 
  2.40525  12.86000   0.14000   0.14000 
  2.40550  12.86000   0.14000   0.14000 
  2.40575  12.86000   0.14000   0.14000 
  2.40600  12.86000   0.14000   0.14000 
  2.40625  12.86000   0.14000   0.14000 
  2.40650  12.86000   0.14000   0.14000 
  2.40675  12.86000   0.14000   0.14000 
  2.40700  12.87000   0.14000   0.14000 
  2.40725  12.88000   0.13000   0.13000 
  2.40750  12.89000   0.13000   0.13000 
  2.40775  12.90000   0.13000   0.13000 
  2.40800  12.91000   0.13000   0.13000 
  2.40825  12.92000   0.13000   0.13000 
  2.40850  12.92000   0.13000   0.13000 
  2.40875  12.91000   0.13000   0.13000 
  2.40900  12.90000   0.13000   0.13000 
  2.40925  12.89000   0.13000   0.13000 
  2.40950  12.87000   0.13000   0.13000 
  2.40975  12.85000   0.13000   0.13000 
  2.41000  12.82000   0.13000   0.13000 
  2.41025  12.79000   0.13000   0.13000 
  2.41050  12.77000   0.13000   0.13000 
  2.41075  12.74000   0.13000   0.13000 
  2.41100  12.72000   0.13000   0.13000 
  2.41125  12.70000   0.13000   0.13000 
  2.41150  12.69000   0.13000   0.13000 
  2.41175  12.68000   0.13000   0.13000 
  2.41200  12.67000   0.13000   0.13000 
  2.41225  12.67000   0.13000   0.13000 
  2.41250  12.67000   0.13000   0.13000 
  2.41275  12.67000   0.13000   0.13000 
  2.41300  12.68000   0.13000   0.13000 
  2.41325  12.69000   0.13000   0.13000 
  2.41350  12.69000   0.13000   0.13000 
  2.41375  12.70000   0.13000   0.13000 
  2.41400  12.71000   0.13000   0.13000 
  2.41425  12.71000   0.13000   0.13000 
  2.41450  12.71000   0.13000   0.13000 
  2.41475  12.72000   0.13000   0.13000 
  2.41500  12.72000   0.13000   0.13000 
  2.41525  12.71000   0.13000   0.13000 
  2.41550  12.71000   0.13000   0.13000 
  2.41575  12.71000   0.12000   0.12000 
  2.41600  12.71000   0.12000   0.12000 
  2.41625  12.70000   0.12000   0.12000 
  2.41650  12.71000   0.12000   0.12000 
  2.41675  12.71000   0.12000   0.12000 
  2.41700  12.72000   0.12000   0.12000 
  2.41725  12.73000   0.12000   0.12000 
  2.41750  12.74000   0.12000   0.12000 
  2.41775  12.76000   0.12000   0.12000 
  2.41800  12.78000   0.12000   0.12000 
  2.41825  12.80000   0.12000   0.12000 
  2.41850  12.81000   0.12000   0.12000 
  2.41875  12.83000   0.12000   0.12000 
  2.41900  12.84000   0.12000   0.12000 
  2.41925  12.84000   0.12000   0.12000 
  2.41950  12.84000   0.12000   0.12000 
  2.41975  12.84000   0.12000   0.12000 
  2.42000  12.84000   0.12000   0.12000 
  2.42025  12.83000   0.12000   0.12000 
  2.42050  12.83000   0.12000   0.12000 
  2.42075  12.82000   0.12000   0.12000 
  2.42100  12.82000   0.12000   0.12000 
  2.42125  12.82000   0.12000   0.12000 
  2.42150  12.82000   0.12000   0.12000 
  2.42175  12.82000   0.12000   0.12000 
  2.42200  12.82000   0.12000   0.12000 
  2.42225  12.81000   0.12000   0.12000 
  2.42250  12.81000   0.12000   0.12000 
  2.42275  12.80000   0.12000   0.12000 
  2.42300  12.79000   0.12000   0.12000 
  2.42325  12.78000   0.12000   0.12000 
  2.42350  12.77000   0.12000   0.12000 
  2.42375  12.75000   0.12000   0.12000 
  2.42400  12.74000   0.12000   0.12000 
  2.42425  12.74000   0.12000   0.12000 
  2.42450  12.73000   0.12000   0.12000 
  2.42475  12.73000   0.12000   0.12000 
  2.42500  12.73000   0.12000   0.12000 
  2.42525  12.73000   0.12000   0.12000 
  2.42550  12.73000   0.12000   0.12000 
  2.42575  12.73000   0.12000   0.12000 
  2.42600  12.73000   0.12000   0.12000 
  2.42625  12.73000   0.12000   0.12000 
  2.42650  12.73000   0.12000   0.12000 
  2.42675  12.72000   0.12000   0.12000 
  2.42700  12.72000   0.11000   0.11000 
  2.42725  12.73000   0.11000   0.11000 
  2.42750  12.73000   0.11000   0.11000 
  2.42775  12.75000   0.11000   0.11000 
  2.42800  12.76000   0.11000   0.11000 
  2.42825  12.78000   0.11000   0.11000 
  2.42850  12.81000   0.11000   0.11000 
  2.42875  12.84000   0.11000   0.11000 
  2.42900  12.86000   0.11000   0.11000 
  2.42925  12.89000   0.11000   0.11000 
  2.42950  12.91000   0.11000   0.11000 
  2.42975  12.94000   0.11000   0.11000 
  2.43000  12.95000   0.11000   0.11000 
  2.43025  12.97000   0.11000   0.11000 
  2.43050  12.98000   0.11000   0.11000 
  2.43075  12.99000   0.11000   0.11000 
  2.43100  13.00000   0.11000   0.11000 
  2.43125  13.01000   0.11000   0.11000 
  2.43150  13.02000   0.11000   0.11000 
  2.43175  13.02000   0.11000   0.11000 
  2.43200  13.03000   0.11000   0.11000 
  2.43225  13.03000   0.11000   0.11000 
  2.43250  13.02000   0.11000   0.11000 
  2.43275  13.01000   0.11000   0.11000 
  2.43300  12.99000   0.11000   0.11000 
  2.43325  12.97000   0.11000   0.11000 
  2.43350  12.95000   0.11000   0.11000 
  2.43375  12.92000   0.11000   0.11000 
  2.43400  12.88000   0.11000   0.11000 
  2.43425  12.85000   0.11000   0.11000 
  2.43450  12.82000   0.11000   0.11000 
  2.43475  12.79000   0.11000   0.11000 
  2.43500  12.77000   0.11000   0.11000 
  2.43525  12.76000   0.11000   0.11000 
  2.43550  12.75000   0.11000   0.11000 
  2.43575  12.75000   0.11000   0.11000 
  2.43600  12.76000   0.11000   0.11000 
  2.43625  12.78000   0.11000   0.11000 
  2.43650  12.80000   0.11000   0.11000 
  2.43675  12.83000   0.11000   0.11000 
  2.43700  12.86000   0.11000   0.11000 
  2.43725  12.88000   0.11000   0.11000 
  2.43750  12.91000   0.11000   0.11000 
  2.43775  12.93000   0.11000   0.11000 
  2.43800  12.94000   0.11000   0.11000 
  2.43825  12.95000   0.11000   0.11000 
  2.43850  12.95000   0.11000   0.11000 
  2.43875  12.95000   0.11000   0.11000 
  2.43900  12.94000   0.11000   0.11000 
  2.43925  12.94000   0.11000   0.11000 
  2.43950  12.93000   0.11000   0.11000 
  2.43975  12.92000   0.11000   0.11000 
  2.44000  12.92000   0.11000   0.11000 
  2.44025  12.91000   0.11000   0.11000 
  2.44050  12.91000   0.11000   0.11000 
  2.44075  12.90000   0.11000   0.11000 
  2.44100  12.90000   0.11000   0.11000 
  2.44125  12.89000   0.11000   0.11000 
  2.44150  12.88000   0.11000   0.11000 
  2.44175  12.86000   0.11000   0.11000 
  2.44200  12.84000   0.11000   0.11000 
  2.44225  12.83000   0.11000   0.11000 
  2.44250  12.81000   0.11000   0.11000 
  2.44275  12.79000   0.11000   0.11000 
  2.44300  12.77000   0.11000   0.11000 
  2.44325  12.76000   0.11000   0.11000 
  2.44350  12.75000   0.11000   0.11000 
  2.44375  12.74000   0.11000   0.11000 
  2.44400  12.74000   0.11000   0.11000 
  2.44425  12.74000   0.11000   0.11000 
  2.44450  12.75000   0.11000   0.11000 
  2.44475  12.76000   0.11000   0.11000 
  2.44500  12.77000   0.11000   0.11000 
  2.44525  12.78000   0.11000   0.11000 
  2.44550  12.79000   0.11000   0.11000 
  2.44575  12.80000   0.11000   0.11000 
  2.44600  12.81000   0.11000   0.11000 
  2.44625  12.81000   0.11000   0.11000 
  2.44650  12.81000   0.11000   0.11000 
  2.44675  12.81000   0.11000   0.11000 
  2.44700  12.80000   0.11000   0.11000 
  2.44725  12.79000   0.11000   0.11000 
  2.44750  12.78000   0.11000   0.11000 
  2.44775  12.77000   0.11000   0.11000 
  2.44800  12.76000   0.11000   0.11000 
  2.44825  12.74000   0.11000   0.11000 
  2.44850  12.73000   0.11000   0.11000 
  2.44875  12.72000   0.11000   0.11000 
  2.44900  12.71000   0.11000   0.11000 
  2.44925  12.70000   0.11000   0.11000 
  2.44950  12.69000   0.11000   0.11000 
  2.44975  12.69000   0.11000   0.11000 
  2.45000  12.69000   0.11000   0.11000 
  2.45025  12.70000   0.11000   0.11000 
  2.45050  12.70000   0.11000   0.11000 
  2.45075  12.72000   0.11000   0.11000 
  2.45100  12.73000   0.11000   0.11000 
  2.45125  12.75000   0.11000   0.11000 
  2.45150  12.77000   0.11000   0.11000 
  2.45175  12.78000   0.11000   0.11000 
  2.45200  12.80000   0.10000   0.10000 
  2.45225  12.82000   0.10000   0.10000 
  2.45250  12.83000   0.10000   0.10000 
  2.45275  12.84000   0.10000   0.10000 
  2.45300  12.86000   0.10000   0.10000 
  2.45325  12.87000   0.10000   0.10000 
  2.45350  12.88000   0.10000   0.10000 
  2.45375  12.89000   0.10000   0.10000 
  2.45400  12.91000   0.10000   0.10000 
  2.45425  12.93000   0.10000   0.10000 
  2.45450  12.95000   0.10000   0.10000 
  2.45475  12.97000   0.10000   0.10000 
  2.45500  12.99000   0.10000   0.10000 
  2.45525  13.01000   0.10000   0.10000 
  2.45550  13.02000   0.10000   0.10000 
  2.45575  13.03000   0.10000   0.10000 
  2.45600  13.03000   0.10000   0.10000 
  2.45625  13.03000   0.10000   0.10000 
  2.45650  13.02000   0.10000   0.10000 
  2.45675  13.01000   0.10000   0.10000 
  2.45700  13.00000   0.10000   0.10000 
  2.45725  12.98000   0.10000   0.10000 
  2.45750  12.97000   0.10000   0.10000 
  2.45775  12.96000   0.10000   0.10000 
  2.45800  12.95000   0.10000   0.10000 
  2.45825  12.94000   0.10000   0.10000 
  2.45850  12.93000   0.10000   0.10000 
  2.45875  12.92000   0.10000   0.10000 
  2.45900  12.91000   0.10000   0.10000 
  2.45925  12.91000   0.10000   0.10000 
  2.45950  12.90000   0.10000   0.10000 
  2.45975  12.89000   0.10000   0.10000 
  2.46000  12.88000   0.10000   0.10000 
  2.46025  12.88000   0.10000   0.10000 
  2.46050  12.87000   0.10000   0.10000 
  2.46075  12.87000   0.10000   0.10000 
  2.46100  12.87000   0.10000   0.10000 
  2.46125  12.87000   0.10000   0.10000 
  2.46150  12.87000   0.10000   0.10000 
  2.46175  12.87000   0.10000   0.10000 
  2.46200  12.87000   0.10000   0.10000 
  2.46225  12.86000   0.10000   0.10000 
  2.46250  12.86000   0.10000   0.10000 
  2.46275  12.85000   0.10000   0.10000 
  2.46300  12.84000   0.10000   0.10000 
  2.46325  12.84000   0.10000   0.10000 
  2.46350  12.83000   0.10000   0.10000 
  2.46375  12.83000   0.10000   0.10000 
  2.46400  12.84000   0.10000   0.10000 
  2.46425  12.84000   0.10000   0.10000 
  2.46450  12.86000   0.10000   0.10000 
  2.46475  12.87000   0.10000   0.10000 
  2.46500  12.88000   0.10000   0.10000 
  2.46525  12.90000   0.10000   0.10000 
  2.46550  12.91000   0.10000   0.10000 
  2.46575  12.92000   0.10000   0.10000 
  2.46600  12.93000   0.10000   0.10000 
  2.46625  12.93000   0.10000   0.10000 
  2.46650  12.94000   0.10000   0.10000 
  2.46675  12.93000   0.10000   0.10000 
  2.46700  12.93000   0.10000   0.10000 
  2.46725  12.93000   0.10000   0.10000 
  2.46750  12.92000   0.10000   0.10000 
  2.46775  12.91000   0.10000   0.10000 
  2.46800  12.91000   0.10000   0.10000 
  2.46825  12.90000   0.10000   0.10000 
  2.46850  12.91000   0.10000   0.10000 
  2.46875  12.91000   0.10000   0.10000 
  2.46900  12.92000   0.10000   0.10000 
  2.46925  12.93000   0.10000   0.10000 
  2.46950  12.95000   0.10000   0.10000 
  2.46975  12.96000   0.10000   0.10000 
  2.47000  12.98000   0.10000   0.10000 
  2.47025  13.00000   0.10000   0.10000 
  2.47050  13.02000   0.10000   0.10000 
  2.47075  13.04000   0.10000   0.10000 
  2.47100  13.05000   0.10000   0.10000 
  2.47125  13.07000   0.10000   0.10000 
  2.47150  13.07000   0.10000   0.10000 
  2.47175  13.08000   0.10000   0.10000 
  2.47200  13.08000   0.10000   0.10000 
  2.47225  13.08000   0.10000   0.10000 
  2.47250  13.08000   0.10000   0.10000 
  2.47275  13.08000   0.10000   0.10000 
  2.47300  13.08000   0.10000   0.10000 
  2.47325  13.08000   0.10000   0.10000 
  2.47350  13.08000   0.10000   0.10000 
  2.47375  13.08000   0.10000   0.10000 
  2.47400  13.08000   0.10000   0.10000 
  2.47425  13.08000   0.10000   0.10000 
  2.47450  13.07000   0.10000   0.10000 
  2.47475  13.06000   0.10000   0.10000 
  2.47500  13.04000   0.10000   0.10000 
  2.47525  13.02000   0.10000   0.10000 
  2.47550  13.00000   0.10000   0.10000 
  2.47575  12.97000   0.10000   0.10000 
  2.47600  12.94000   0.10000   0.10000 
  2.47625  12.91000   0.10000   0.10000 
  2.47650  12.88000   0.10000   0.10000 
  2.47675  12.85000   0.10000   0.10000 
  2.47700  12.82000   0.10000   0.10000 
  2.47725  12.79000   0.10000   0.10000 
  2.47750  12.77000   0.10000   0.10000 
  2.47775  12.75000   0.10000   0.10000 
  2.47800  12.74000   0.10000   0.10000 
  2.47825  12.74000   0.10000   0.10000 
  2.47850  12.74000   0.10000   0.10000 
  2.47875  12.75000   0.10000   0.10000 
  2.47900  12.76000   0.10000   0.10000 
  2.47925  12.77000   0.10000   0.10000 
  2.47950  12.77000   0.10000   0.10000 
  2.47975  12.78000   0.10000   0.10000 
  2.48000  12.77000   0.10000   0.10000 
  2.48025  12.76000   0.10000   0.10000 
